4.011999999999999886e+02,4.099999999999999912e-04
4.031000000000000227e+02,8.537500000000000167e-04
4.050000000000000000e+02,1.036250000000000062e-03
4.070000000000000000e+02,9.764999999999999375e-04
4.088999999999999773e+02,8.528499999999999406e-04
4.108000000000000114e+02,9.925000000000001096e-04
4.128000000000000114e+02,1.649999999999999991e-03
4.146999999999999886e+02,2.544999999999999953e-03
4.166000000000000227e+02,3.439999999999999915e-03
4.186000000000000227e+02,4.167500000000000197e-03
4.205000000000000000e+02,4.702500000000000083e-03
4.223999999999999773e+02,5.519999999999999733e-03
4.243000000000000114e+02,6.749999999999999056e-03
4.263000000000000114e+02,8.255250000000000435e-03
4.281999999999999886e+02,9.027500000000000802e-03
4.301000000000000227e+02,9.865000000000000505e-03
4.321000000000000227e+02,1.066250000000000010e-02
4.340000000000000000e+02,1.221750000000000093e-02
4.358999999999999773e+02,1.373999999999999874e-02
4.378000000000000114e+02,1.527499999999999865e-02
4.398000000000000114e+02,1.605000000000000177e-02
4.416999999999999886e+02,1.757500000000000034e-02
4.436000000000000227e+02,1.835000000000000173e-02
4.456000000000000227e+02,1.762500000000000178e-02
4.475000000000000000e+02,1.622499999999999984e-02
4.493999999999999773e+02,1.479999999999999892e-02
4.513000000000000114e+02,1.404999999999999825e-02
4.533000000000000114e+02,1.332500000000000004e-02
4.551999999999999886e+02,1.335000000000000075e-02
4.571000000000000227e+02,1.335000000000000075e-02
4.591000000000000227e+02,1.330000000000000106e-02
4.610000000000000000e+02,1.397499999999999784e-02
4.628999999999999773e+02,1.467499999999999881e-02
4.648000000000000114e+02,1.539999999999999876e-02
4.668000000000000114e+02,1.545000000000000019e-02
4.686999999999999886e+02,1.552499999999999887e-02
4.706000000000000227e+02,1.557499999999999857e-02
4.726000000000000227e+02,1.629999999999999852e-02
4.745000000000000000e+02,1.629999999999999852e-02
4.763999999999999773e+02,1.710000000000000062e-02
4.783000000000000114e+02,1.790000000000000271e-02
4.803000000000000114e+02,1.875000000000000278e-02
4.821999999999999886e+02,2.032499999999999932e-02
4.841000000000000227e+02,2.192500000000000004e-02
4.861000000000000227e+02,2.427500000000000144e-02
4.880000000000000000e+02,2.657500000000000140e-02
4.898999999999999773e+02,2.812499999999999722e-02
4.918000000000000114e+02,3.039999999999999647e-02
4.938000000000000114e+02,3.272499999999999715e-02
4.956999999999999886e+02,3.432500000000000134e-02
4.976000000000000227e+02,3.670000000000000345e-02
4.996000000000000227e+02,3.830000000000000765e-02
5.015000000000000000e+02,3.984999999999999654e-02
5.033999999999999773e+02,4.139999999999999930e-02
5.053000000000000114e+02,4.287500000000000339e-02
5.073000000000000114e+02,4.437500000000000472e-02
5.091999999999999886e+02,4.664999999999999702e-02
5.111000000000000227e+02,4.897499999999999770e-02
5.131000000000000227e+02,5.130000000000000532e-02
5.150000000000000000e+02,5.430000000000000798e-02
5.168999999999999773e+02,5.657499999999999335e-02
5.187999999999999545e+02,5.812499999999999611e-02
5.207999999999999545e+02,5.824999999999999623e-02
5.227000000000000455e+02,5.694999999999999368e-02
5.246000000000000227e+02,5.420000000000000512e-02
5.266000000000000227e+02,5.150000000000000411e-02
5.285000000000000000e+02,4.950000000000000233e-02
5.303999999999999773e+02,4.825000000000000122e-02
5.323999999999999773e+02,4.775000000000000078e-02
5.342999999999999545e+02,4.725000000000000033e-02
5.362000000000000455e+02,4.625000000000000638e-02
5.381000000000000227e+02,4.525000000000000550e-02
5.401000000000000227e+02,4.500000000000000527e-02
5.420000000000000000e+02,4.475000000000000505e-02
5.438999999999999773e+02,4.450000000000000483e-02
5.458999999999999773e+02,4.520000000000000406e-02
5.477999999999999545e+02,4.512500000000000538e-02
5.497000000000000455e+02,4.664999999999999702e-02
5.516000000000000227e+02,4.744999999999999912e-02
5.536000000000000227e+02,4.900000000000000189e-02
5.555000000000000000e+02,5.075000000000000344e-02
5.573999999999999773e+02,5.300000000000000544e-02
5.593999999999999773e+02,5.624999999999999445e-02
5.612999999999999545e+02,5.949999999999999734e-02
5.632000000000000455e+02,6.275000000000000022e-02
5.651000000000000227e+02,6.700000000000000400e-02
5.671000000000000227e+02,7.275000000000000910e-02
5.690000000000000000e+02,7.775000000000001354e-02
5.708999999999999773e+02,8.075000000000001621e-02
5.728999999999999773e+02,8.900000000000000966e-02
5.747999999999999545e+02,9.725000000000000311e-02
5.767000000000000455e+02,9.800000000000000377e-02
5.786000000000000227e+02,9.850000000000000422e-02
5.806000000000000227e+02,9.825000000000000400e-02
5.825000000000000000e+02,9.775000000000000355e-02
5.843999999999999773e+02,8.950000000000001010e-02
5.863999999999999773e+02,8.850000000000000921e-02
5.882999999999999545e+02,8.775000000000000855e-02
5.902000000000000455e+02,7.950000000000001510e-02
5.921000000000000227e+02,7.925000000000001488e-02
5.941000000000000227e+02,7.725000000000001310e-02
5.960000000000000000e+02,7.475000000000001088e-02
5.978999999999999773e+02,7.300000000000000933e-02
5.998999999999999773e+02,7.125000000000000777e-02
6.017999999999999545e+02,6.975000000000000644e-02
6.037000000000000455e+02,6.875000000000000555e-02
6.056000000000000227e+02,6.800000000000000488e-02
6.076000000000000227e+02,6.725000000000000422e-02
6.095000000000000000e+02,6.625000000000000333e-02
6.113999999999999773e+02,6.625000000000000333e-02
6.133999999999999773e+02,6.550000000000000266e-02
6.152999999999999545e+02,6.550000000000000266e-02
6.172000000000000455e+02,6.550000000000000266e-02
6.191000000000000227e+02,6.550000000000000266e-02
6.211000000000000227e+02,6.550000000000000266e-02
6.230000000000000000e+02,6.550000000000000266e-02
6.248999999999999773e+02,6.475000000000000200e-02
6.268999999999999773e+02,6.400000000000000133e-02
6.287999999999999545e+02,6.400000000000000133e-02
6.307000000000000455e+02,6.350000000000000089e-02
6.326000000000000227e+02,6.275000000000000022e-02
6.346000000000000227e+02,6.199999999999999956e-02
6.365000000000000000e+02,6.124999999999999889e-02
6.383999999999999773e+02,6.149999999999999911e-02
6.403999999999999773e+02,6.149999999999999911e-02
6.422999999999999545e+02,6.174999999999999933e-02
6.442000000000000455e+02,6.250000000000000000e-02
6.462000000000000455e+02,6.425000000000000155e-02
6.481000000000000227e+02,6.500000000000000222e-02
6.500000000000000000e+02,6.675000000000000377e-02
6.518999999999999773e+02,6.925000000000000600e-02
6.538999999999999773e+02,7.175000000000000822e-02
6.557999999999999545e+02,7.500000000000001110e-02
6.577000000000000455e+02,7.825000000000001399e-02
6.597000000000000455e+02,8.000000000000001554e-02
6.616000000000000227e+02,8.800000000000000877e-02
6.635000000000000000e+02,8.825000000000000899e-02
6.653999999999999773e+02,9.625000000000000222e-02
6.673999999999999773e+02,9.650000000000000244e-02
6.692999999999999545e+02,1.045000000000000095e-01
6.712000000000000455e+02,1.047500000000000098e-01
6.732000000000000455e+02,1.127500000000000169e-01
6.751000000000000227e+02,1.130000000000000171e-01
6.770000000000000000e+02,1.135000000000000175e-01
6.788999999999999773e+02,1.212499999999999967e-01
6.808999999999999773e+02,1.214999999999999830e-01
6.827999999999999545e+02,1.219999999999999835e-01
6.847000000000000455e+02,1.297500000000000042e-01
6.867000000000000455e+02,1.297500000000000042e-01
6.886000000000000227e+02,1.300000000000000044e-01
6.905000000000000000e+02,1.297500000000000042e-01
6.923999999999999773e+02,1.222499999999999837e-01
6.943999999999999773e+02,1.217499999999999832e-01
6.962999999999999545e+02,1.212499999999999967e-01
6.982000000000000455e+02,1.207499999999999962e-01
7.002000000000000455e+02,1.127500000000000169e-01
7.021000000000000227e+02,1.122500000000000164e-01
7.040000000000000000e+02,1.117500000000000160e-01
7.058999999999999773e+02,1.040000000000000091e-01
7.078999999999999773e+02,1.037500000000000089e-01
7.097999999999999545e+02,1.037500000000000089e-01
7.117000000000000455e+02,1.037500000000000089e-01
7.137000000000000455e+02,1.040000000000000091e-01
7.156000000000000227e+02,9.725000000000000311e-02
7.175000000000000000e+02,9.800000000000000377e-02
7.193999999999999773e+02,9.875000000000000444e-02
7.213999999999999773e+02,9.850000000000000422e-02
7.232999999999999545e+02,9.775000000000000355e-02
7.252000000000000455e+02,9.725000000000000311e-02
7.272000000000000455e+02,9.725000000000000311e-02
7.291000000000000227e+02,9.700000000000000289e-02
7.310000000000000000e+02,9.650000000000000244e-02
7.328999999999999773e+02,8.825000000000000899e-02
7.348999999999999773e+02,7.650000000000001243e-02
7.367999999999999545e+02,6.975000000000000644e-02
7.387000000000000455e+02,6.375000000000000111e-02
7.407000000000000455e+02,6.049999999999999822e-02
7.426000000000000227e+02,5.709999999999999104e-02
7.445000000000000000e+02,5.462500000000000688e-02
7.463999999999999773e+02,5.150000000000000411e-02
7.483999999999999773e+02,4.914999999999999925e-02
7.502999999999999545e+02,4.607499999999999790e-02
7.522000000000000455e+02,4.375000000000000416e-02
7.542000000000000455e+02,4.145000000000000073e-02
7.561000000000000227e+02,3.842500000000000776e-02
7.580000000000000000e+02,3.612500000000000433e-02
7.598999999999999773e+02,3.382500000000000090e-02
7.618999999999999773e+02,3.222499999999999670e-02
7.637999999999999545e+02,3.062499999999999944e-02
7.657000000000000455e+02,2.902499999999999525e-02
7.677000000000000455e+02,2.819999999999999590e-02
7.696000000000000227e+02,2.662500000000000283e-02
7.715000000000000000e+02,2.580000000000000002e-02
7.735000000000000000e+02,2.497500000000000067e-02
7.753999999999999773e+02,2.419999999999999929e-02
7.772999999999999545e+02,2.267500000000000071e-02
7.792000000000000455e+02,2.190000000000000280e-02
7.812000000000000455e+02,2.035000000000000003e-02
7.831000000000000227e+02,1.952500000000000416e-02
7.850000000000000000e+02,1.792499999999999996e-02
7.870000000000000000e+02,1.632499999999999923e-02
7.888999999999999773e+02,1.549999999999999989e-02
7.907999999999999545e+02,1.397499999999999784e-02
7.927000000000000455e+02,1.320000000000000166e-02
7.947000000000000455e+02,1.172499999999999931e-02
7.966000000000000227e+02,1.097500000000000038e-02
7.985000000000000000e+02,9.425000000000001085e-03
8.005000000000000000e+02,8.600000000000000006e-03
8.023999999999999773e+02,7.749999999999999944e-03
8.042999999999999545e+02,6.959999999999999173e-03
8.062000000000000455e+02,6.182500000000000495e-03
8.082000000000000455e+02,5.502499999999999579e-03
8.101000000000000227e+02,4.907500000000000404e-03
8.120000000000000000e+02,4.379999999999999345e-03
8.140000000000000000e+02,3.895000000000000025e-03
8.158999999999999773e+02,3.464999999999999331e-03
8.177999999999999545e+02,3.110000000000000351e-03
8.197000000000000455e+02,2.842250000000000158e-03
8.217000000000000455e+02,2.592500000000000186e-03
8.236000000000000227e+02,2.429999999999999868e-03
8.255000000000000000e+02,2.497499999999999720e-03
8.275000000000000000e+02,2.720000000000000195e-03
8.293999999999999773e+02,3.249999999999999851e-03
8.312999999999999545e+02,3.777500000000000475e-03
8.332000000000000455e+02,4.002499999999999981e-03
8.352000000000000455e+02,3.714999999999999986e-03
8.371000000000000227e+02,3.001124999999999887e-03
8.390000000000000000e+02,2.207499999999999827e-03
8.410000000000000000e+02,1.474999999999999966e-03
8.428999999999999773e+02,1.039999999999999909e-03
8.447999999999999545e+02,6.800000000000000488e-04
8.467000000000000455e+02,4.175000000000000109e-04
8.487000000000000455e+02,1.977500000000000091e-04
8.506000000000000227e+02,1.749999999999999169e-05
8.525000000000000000e+02,-1.074999999999999974e-04
8.545000000000000000e+02,-1.774999999999999777e-04
8.563999999999999773e+02,-1.875000000000000039e-04
8.582999999999999545e+02,-1.224999999999999960e-04
8.602000000000000455e+02,-5.250000000000000218e-05
8.622000000000000455e+02,2.740000000000000194e-05
8.641000000000000227e+02,1.525000000000000205e-04
8.660000000000000000e+02,1.875000000000000039e-04
8.680000000000000000e+02,2.274999999999999733e-04
8.698999999999999773e+02,2.049999999999999956e-04
8.717999999999999545e+02,1.207500000000000077e-04
8.737000000000000455e+02,3.499999999999998338e-05
8.757000000000000455e+02,-3.750000000000001704e-05
8.776000000000000227e+02,-5.999999999999999474e-05
8.795000000000000000e+02,-1.999999999999999825e-05
8.815000000000000000e+02,7.249999999999997332e-05
8.833999999999999773e+02,1.450000000000000009e-04
8.852999999999999545e+02,2.489999999999999809e-04
8.872999999999999545e+02,3.793500000000000322e-04
8.892000000000000455e+02,4.677499999999999583e-04
8.911000000000000227e+02,4.699999999999999859e-04
8.930000000000000000e+02,4.322500000000000170e-04
8.950000000000000000e+02,3.680000000000000003e-04
8.968999999999999773e+02,3.679500000000000262e-04
8.987999999999999545e+02,4.229999999999999819e-04
9.007999999999999545e+02,6.015749999999999180e-04
9.027000000000000455e+02,8.799999999999999229e-04
9.046000000000000227e+02,1.250000000000000026e-03
9.065000000000000000e+02,1.585000000000000037e-03
9.085000000000000000e+02,1.874999999999999931e-03
9.103999999999999773e+02,2.075000000000000022e-03
9.122999999999999545e+02,2.324999999999999810e-03
9.142999999999999545e+02,2.674999999999999861e-03
9.162000000000000455e+02,3.024999999999999911e-03
9.181000000000000227e+02,3.325000000000000264e-03
9.200000000000000000e+02,3.774999999999999710e-03
9.220000000000000000e+02,4.300000000000000003e-03
9.238999999999999773e+02,5.050000000000000669e-03
9.257999999999999545e+02,6.049999999999999822e-03
9.277999999999999545e+02,7.024999999999999994e-03
9.297000000000000455e+02,7.774999999999999793e-03
9.316000000000000227e+02,8.025000000000000883e-03
9.335000000000000000e+02,7.700000000000000247e-03
9.355000000000000000e+02,6.975000000000000297e-03
9.373999999999999773e+02,5.825000000000000316e-03
9.392999999999999545e+02,4.550000000000000225e-03
9.412999999999999545e+02,3.700000000000000164e-03
9.432000000000000455e+02,3.275000000000000133e-03
9.451000000000000227e+02,3.399999999999999811e-03
9.470000000000000000e+02,3.874999999999999972e-03
9.490000000000000000e+02,4.575000000000000074e-03
9.508999999999999773e+02,5.349999999999999721e-03
9.527999999999999545e+02,6.274999999999999328e-03
9.547999999999999545e+02,7.324999999999999914e-03
9.567000000000000455e+02,8.899999999999999925e-03
9.586000000000000227e+02,9.600000000000000894e-03
9.605000000000000000e+02,1.025000000000000043e-02
9.625000000000000000e+02,1.085000000000000027e-02
9.643999999999999773e+02,1.145749999999999894e-02
9.662999999999999545e+02,1.133750000000000036e-02
9.682999999999999545e+02,1.276725000000000082e-02
9.702000000000000455e+02,1.349574999999999733e-02
9.721000000000000227e+02,1.499999999999999944e-02
9.740000000000000000e+02,1.501074999999999979e-02
9.760000000000000000e+02,1.502500000000000016e-02
9.778999999999999773e+02,1.429999999999999848e-02
9.797999999999999545e+02,1.358999999999999792e-02
9.817999999999999545e+02,1.213499999999999995e-02
9.837000000000000455e+02,1.067250000000000143e-02
9.856000000000000227e+02,9.945000000000000714e-03
9.875000000000000000e+02,8.437500000000000555e-03
9.895000000000000000e+02,7.054999999999999639e-03
9.913999999999999773e+02,5.609999999999999536e-03
9.932999999999999545e+02,4.422500000000000216e-03
9.952999999999999545e+02,3.547499999999999439e-03
9.972000000000000455e+02,2.890000000000000208e-03
9.991000000000000227e+02,2.452500000000000253e-03
1.001100000000000023e+03,2.010000000000000068e-03
1.003000000000000000e+03,1.639999999999999965e-03
1.004899999999999977e+03,1.284999999999999901e-03
1.006799999999999955e+03,1.100000000000000066e-03
1.008799999999999955e+03,1.100000000000000066e-03
1.010700000000000045e+03,1.250000000000000026e-03
1.012600000000000023e+03,1.449999999999999900e-03
1.014600000000000023e+03,1.700000000000000122e-03
1.016500000000000000e+03,1.925000000000000062e-03
1.018399999999999977e+03,2.050000000000000173e-03
1.020299999999999955e+03,2.150000000000000001e-03
1.022299999999999955e+03,2.174999999999999850e-03
1.024200000000000045e+03,2.324999999999999810e-03
1.026099999999999909e+03,2.524999999999999901e-03
1.028099999999999909e+03,2.650000000000000012e-03
1.030000000000000000e+03,2.474999999999999770e-03
1.031900000000000091e+03,2.050000000000000173e-03
1.033799999999999955e+03,1.524999999999999880e-03
1.035799999999999955e+03,1.032499999999999998e-03
1.037700000000000045e+03,7.600000000000000418e-04
1.039599999999999909e+03,7.186249999999999713e-04
1.041599999999999909e+03,7.758999999999999404e-04
1.043500000000000000e+03,8.660000000000000163e-04
1.045400000000000091e+03,1.064999999999999974e-03
1.047299999999999955e+03,1.402500000000000101e-03
1.049299999999999955e+03,1.924999999999999845e-03
1.051200000000000045e+03,2.524999999999999901e-03
1.053099999999999909e+03,3.299999999999999982e-03
1.055099999999999909e+03,4.125000000000000194e-03
1.057000000000000000e+03,5.024999999999999953e-03
1.058900000000000091e+03,6.075000000000000538e-03
1.060799999999999955e+03,7.125000000000000257e-03
1.062799999999999955e+03,8.199999999999998956e-03
1.064700000000000045e+03,9.700000000000000289e-03
1.066599999999999909e+03,1.112500000000000121e-02
1.068599999999999909e+03,1.175000000000000003e-02
1.070500000000000000e+03,1.234999999999999987e-02
1.072400000000000091e+03,1.296250000000000006e-02
1.074299999999999955e+03,1.287500000000000103e-02
1.076299999999999955e+03,1.207500000000000066e-02
1.078200000000000045e+03,1.205499999999999974e-02
1.080099999999999909e+03,1.130749999999999984e-02
1.082099999999999909e+03,9.825000000000000400e-03
1.084000000000000000e+03,9.115000000000001573e-03
1.085900000000000091e+03,8.422500000000001166e-03
1.087799999999999955e+03,7.275000000000001084e-03
1.089799999999999955e+03,6.575000000000000115e-03
1.091700000000000045e+03,6.100000000000000387e-03
1.093599999999999909e+03,5.925000000000000579e-03
1.095599999999999909e+03,5.974999999999999409e-03
1.097500000000000000e+03,6.349999999999999742e-03
1.099400000000000091e+03,7.100000000000000408e-03
1.101299999999999955e+03,8.250000000000000389e-03
1.103299999999999955e+03,9.975000000000001227e-03
1.105200000000000045e+03,1.225000000000000047e-02
1.107099999999999909e+03,1.449999999999999900e-02
1.109099999999999909e+03,1.677500000000000172e-02
1.111000000000000000e+03,1.902500000000000371e-02
1.112900000000000091e+03,2.125000000000000153e-02
1.114900000000000091e+03,2.344999999999999862e-02
1.116799999999999955e+03,2.562500000000000194e-02
1.118700000000000045e+03,2.625000000000000250e-02
1.120599999999999909e+03,2.615000000000000310e-02
1.122599999999999909e+03,2.384999999999999967e-02
1.124500000000000000e+03,1.935000000000000261e-02
1.126400000000000091e+03,1.417499999999999837e-02
1.128400000000000091e+03,9.000000000000001055e-03
1.130299999999999955e+03,5.300000000000000024e-03
1.132200000000000045e+03,2.825000000000000254e-03
1.134099999999999909e+03,1.655000000000000004e-03
1.136099999999999909e+03,1.464250000000000057e-03
1.138000000000000000e+03,1.758250000000000047e-03
1.139900000000000091e+03,2.337500000000000168e-03
1.141900000000000091e+03,3.174999999999999871e-03
1.143799999999999955e+03,4.400000000000000265e-03
1.145700000000000045e+03,6.049999999999999822e-03
1.147599999999999909e+03,8.049999999999999864e-03
1.149599999999999909e+03,1.070000000000000118e-02
1.151500000000000000e+03,1.290000000000000001e-02
1.153400000000000091e+03,1.657499999999999946e-02
1.155400000000000091e+03,2.030000000000000207e-02
1.157299999999999955e+03,2.482499999999999984e-02
1.159200000000000045e+03,3.094999999999999835e-02
1.161099999999999909e+03,3.862500000000000655e-02
1.163099999999999909e+03,4.784999999999999670e-02
1.165000000000000000e+03,5.787499999999999589e-02
1.166900000000000091e+03,6.800000000000000488e-02
1.168900000000000091e+03,7.425000000000001044e-02
1.170799999999999955e+03,7.475000000000001088e-02
1.172700000000000045e+03,7.000000000000000666e-02
1.174599999999999909e+03,6.149999999999999217e-02
1.176599999999999909e+03,5.174999999999999739e-02
1.178500000000000000e+03,4.325000000000000372e-02
1.180400000000000091e+03,3.699999999999999817e-02
1.182400000000000091e+03,3.324999999999999484e-02
1.184299999999999955e+03,3.125000000000000000e-02
1.186200000000000045e+03,3.125000000000000000e-02
1.188099999999999909e+03,3.275000000000000133e-02
1.190099999999999909e+03,3.650000000000000466e-02
1.192000000000000000e+03,4.175000000000000239e-02
1.193900000000000091e+03,4.725000000000000033e-02
1.195900000000000091e+03,5.449999999999999983e-02
1.197799999999999955e+03,6.199999999999999262e-02
1.199700000000000045e+03,6.850000000000000533e-02
1.201599999999999909e+03,7.175000000000000822e-02
1.203599999999999909e+03,7.025000000000000688e-02
1.205500000000000000e+03,6.600000000000000311e-02
1.207400000000000091e+03,6.074999999999999845e-02
1.209400000000000091e+03,5.674999999999999489e-02
1.211299999999999955e+03,5.450000000000000677e-02
1.213200000000000045e+03,5.225000000000000477e-02
1.215099999999999909e+03,4.950000000000000233e-02
1.217099999999999909e+03,4.525000000000000550e-02
1.219000000000000000e+03,4.100000000000000866e-02
1.220900000000000091e+03,3.825000000000000622e-02
1.222900000000000091e+03,3.750000000000000555e-02
1.224799999999999955e+03,4.025000000000000799e-02
1.226700000000000045e+03,4.575000000000000594e-02
1.228599999999999909e+03,5.325000000000000566e-02
1.230599999999999909e+03,6.224999999999999978e-02
1.232500000000000000e+03,7.050000000000000711e-02
1.234400000000000091e+03,7.750000000000001332e-02
1.236400000000000091e+03,7.850000000000001421e-02
1.238299999999999955e+03,7.850000000000001421e-02
1.240200000000000045e+03,7.775000000000001354e-02
1.242200000000000045e+03,7.650000000000001243e-02
1.244099999999999909e+03,7.525000000000001132e-02
1.246000000000000000e+03,7.450000000000001066e-02
1.247900000000000091e+03,7.525000000000001132e-02
1.249900000000000091e+03,7.825000000000001399e-02
1.251799999999999955e+03,7.925000000000001488e-02
1.253700000000000045e+03,8.700000000000000788e-02
1.255700000000000045e+03,9.475000000000000089e-02
1.257599999999999909e+03,9.475000000000000089e-02
1.259500000000000000e+03,1.025000000000000078e-01
1.261400000000000091e+03,1.027500000000000080e-01
1.263400000000000091e+03,1.032500000000000084e-01
1.265299999999999955e+03,9.600000000000000200e-02
1.267200000000000045e+03,8.875000000000000944e-02
1.269200000000000045e+03,8.125000000000001665e-02
1.271099999999999909e+03,8.075000000000001621e-02
1.273000000000000000e+03,7.800000000000001377e-02
1.274900000000000091e+03,7.650000000000001243e-02
1.276900000000000091e+03,7.550000000000001155e-02
1.278799999999999955e+03,7.350000000000000977e-02
1.280700000000000045e+03,7.075000000000000733e-02
1.282700000000000045e+03,6.650000000000000355e-02
1.284599999999999909e+03,6.224999999999999284e-02
1.286500000000000000e+03,5.824999999999999623e-02
1.288400000000000091e+03,5.500000000000000722e-02
1.290400000000000091e+03,5.250000000000000500e-02
1.292299999999999955e+03,5.150000000000000411e-02
1.294200000000000045e+03,5.225000000000000477e-02
1.296200000000000045e+03,5.200000000000000455e-02
1.298099999999999909e+03,5.200000000000000455e-02
1.300000000000000000e+03,5.200000000000000455e-02
1.301900000000000091e+03,5.125000000000000389e-02
1.303900000000000091e+03,5.050000000000000322e-02
1.305799999999999955e+03,4.975000000000000255e-02
1.307700000000000045e+03,4.900000000000000189e-02
1.309700000000000045e+03,4.750000000000000056e-02
1.311599999999999909e+03,4.675000000000000683e-02
1.313500000000000000e+03,4.450000000000000483e-02
1.315400000000000091e+03,4.300000000000000350e-02
1.317400000000000091e+03,4.125000000000000194e-02
1.319299999999999955e+03,3.900000000000000688e-02
1.321200000000000045e+03,3.825000000000000622e-02
1.323200000000000045e+03,3.750000000000000555e-02
1.325099999999999909e+03,3.675000000000000488e-02
1.327000000000000000e+03,3.775000000000000577e-02
1.328900000000000091e+03,3.875000000000000666e-02
1.330900000000000091e+03,4.050000000000000822e-02
1.332799999999999955e+03,4.175000000000000239e-02
1.334700000000000045e+03,4.225000000000000283e-02
1.336700000000000045e+03,4.225000000000000283e-02
1.338599999999999909e+03,4.300000000000000350e-02
1.340500000000000000e+03,4.300000000000000350e-02
1.342400000000000091e+03,4.475000000000000505e-02
1.344400000000000091e+03,4.649999999999999967e-02
1.346299999999999955e+03,4.800000000000000100e-02
1.348200000000000045e+03,5.125000000000000389e-02
1.350200000000000045e+03,5.350000000000000588e-02
1.352099999999999909e+03,5.650000000000000855e-02
1.354000000000000000e+03,5.974999999999999756e-02
1.356000000000000000e+03,6.275000000000000022e-02
1.357900000000000091e+03,6.525000000000000244e-02
1.359799999999999955e+03,6.850000000000000533e-02
1.361700000000000045e+03,7.075000000000000733e-02
1.363700000000000045e+03,7.325000000000000955e-02
1.365599999999999909e+03,7.475000000000001088e-02
1.367500000000000000e+03,7.650000000000001243e-02
1.369500000000000000e+03,7.825000000000001399e-02
1.371400000000000091e+03,7.825000000000001399e-02
1.373299999999999955e+03,7.675000000000001266e-02
1.375200000000000045e+03,7.375000000000000999e-02
1.377200000000000045e+03,6.900000000000000577e-02
1.379099999999999909e+03,6.425000000000000155e-02
1.381000000000000000e+03,5.849999999999998951e-02
1.383000000000000000e+03,5.300000000000000544e-02
1.384900000000000091e+03,4.825000000000000122e-02
1.386799999999999955e+03,4.424999999999999767e-02
1.388700000000000045e+03,4.125000000000000888e-02
1.390700000000000045e+03,3.825000000000000622e-02
1.392599999999999909e+03,3.600000000000000422e-02
1.394500000000000000e+03,3.400000000000000244e-02
1.396500000000000000e+03,3.350000000000000200e-02
1.398400000000000091e+03,3.299999999999999462e-02
1.400299999999999955e+03,3.424999999999999573e-02
1.402200000000000045e+03,3.599999999999999728e-02
1.404200000000000045e+03,3.874999999999999972e-02
1.406099999999999909e+03,4.300000000000000350e-02
1.408000000000000000e+03,4.800000000000000100e-02
1.410000000000000000e+03,5.575000000000000094e-02
1.411900000000000091e+03,6.325000000000000067e-02
1.413799999999999955e+03,7.174999999999999434e-02
1.415700000000000045e+03,7.825000000000000011e-02
1.417700000000000045e+03,8.175000000000000322e-02
1.419599999999999909e+03,8.275000000000000411e-02
1.421500000000000000e+03,8.150000000000001688e-02
1.423500000000000000e+03,8.050000000000001599e-02
1.425400000000000091e+03,8.075000000000001621e-02
1.427299999999999955e+03,8.375000000000001887e-02
1.429200000000000045e+03,9.149999999999999800e-02
1.431200000000000045e+03,9.149999999999999800e-02
1.433099999999999909e+03,9.899999999999999079e-02
1.435000000000000000e+03,9.924999999999999101e-02
1.437000000000000000e+03,9.899999999999999079e-02
1.438900000000000091e+03,9.899999999999999079e-02
1.440799999999999955e+03,9.899999999999999079e-02
1.442700000000000045e+03,9.124999999999999778e-02
1.444700000000000045e+03,9.124999999999999778e-02
1.446599999999999909e+03,9.124999999999999778e-02
1.448500000000000000e+03,9.124999999999999778e-02
1.450500000000000000e+03,9.124999999999999778e-02
1.452400000000000091e+03,9.149999999999999800e-02
1.454299999999999955e+03,9.924999999999999101e-02
1.456200000000000045e+03,9.949999999999999123e-02
1.458200000000000045e+03,1.074999999999999983e-01
1.460099999999999909e+03,1.160000000000000059e-01
1.462000000000000000e+03,1.170000000000000068e-01
1.464000000000000000e+03,1.100000000000000006e-01
1.465900000000000091e+03,1.024999999999999939e-01
1.467799999999999955e+03,9.450000000000000067e-02
1.469799999999999955e+03,8.675000000000000766e-02
1.471700000000000045e+03,8.425000000000000544e-02
1.473599999999999909e+03,8.125000000000000278e-02
1.475500000000000000e+03,7.700000000000001288e-02
1.477500000000000000e+03,6.950000000000000622e-02
1.479400000000000091e+03,6.124999999999999195e-02
1.481299999999999955e+03,5.325000000000000566e-02
1.483299999999999955e+03,4.750000000000000056e-02
1.485200000000000045e+03,4.400000000000000439e-02
1.487099999999999909e+03,4.250000000000000305e-02
1.489000000000000000e+03,4.325000000000000372e-02
1.491000000000000000e+03,4.550000000000000572e-02
1.492900000000000091e+03,4.875000000000000167e-02
1.494799999999999955e+03,5.175000000000000433e-02
1.496799999999999955e+03,5.649999999999999467e-02
1.498700000000000045e+03,6.124999999999999889e-02
1.500599999999999909e+03,6.675000000000000377e-02
1.502500000000000000e+03,7.325000000000000955e-02
1.504500000000000000e+03,7.950000000000001510e-02
1.506400000000000091e+03,8.750000000000000833e-02
1.508299999999999955e+03,9.550000000000000155e-02
1.510299999999999955e+03,1.035000000000000087e-01
1.512200000000000045e+03,1.189999999999999947e-01
1.514099999999999909e+03,1.270000000000000018e-01
1.516000000000000000e+03,1.427500000000000158e-01
1.518000000000000000e+03,1.585000000000000298e-01
1.519900000000000091e+03,1.745000000000000162e-01
1.521799999999999955e+03,1.902500000000000024e-01
1.523799999999999955e+03,2.062500000000000167e-01
1.525700000000000045e+03,2.299999999999999822e-01
1.527599999999999909e+03,2.459999999999999964e-01
1.529500000000000000e+03,2.695000000000000173e-01
1.531500000000000000e+03,2.927499999999999547e-01
1.533400000000000091e+03,3.084999999999999964e-01
1.535299999999999955e+03,3.312499999999999889e-01
1.537299999999999955e+03,3.387499999999999956e-01
1.539200000000000045e+03,3.462500000000000022e-01
1.541099999999999909e+03,3.457500000000000018e-01
1.543000000000000000e+03,3.455000000000000293e-01
1.545000000000000000e+03,3.297499999999999876e-01
1.546900000000000091e+03,3.142500000000000293e-01
1.548799999999999955e+03,2.987500000000000155e-01
1.550799999999999955e+03,2.832500000000000018e-01
1.552700000000000045e+03,2.680000000000000160e-01
1.554599999999999909e+03,2.527499999999999747e-01
1.556500000000000000e+03,2.374999999999999889e-01
1.558500000000000000e+03,2.222500000000000309e-01
1.560400000000000091e+03,2.070000000000000173e-01
1.562299999999999955e+03,1.917500000000000038e-01
1.564299999999999955e+03,1.840000000000000246e-01
1.566200000000000045e+03,1.685000000000000109e-01
1.568099999999999909e+03,1.530000000000000249e-01
1.570000000000000000e+03,1.375000000000000111e-01
1.572000000000000000e+03,1.219999999999999835e-01
1.573900000000000091e+03,1.140000000000000041e-01
1.575799999999999955e+03,9.850000000000000422e-02
1.577799999999999955e+03,8.325000000000001843e-02
1.579700000000000045e+03,7.750000000000001332e-02
1.581599999999999909e+03,6.975000000000000644e-02
1.583599999999999909e+03,6.450000000000000178e-02
1.585500000000000000e+03,5.975000000000000450e-02
1.587400000000000091e+03,5.650000000000000161e-02
1.589299999999999955e+03,5.500000000000000028e-02
1.591299999999999955e+03,5.399999999999999939e-02
1.593200000000000045e+03,5.449999999999999983e-02
1.595099999999999909e+03,5.600000000000000117e-02
1.597099999999999909e+03,5.825000000000000316e-02
1.599000000000000000e+03,6.275000000000000022e-02
1.600900000000000091e+03,6.900000000000000577e-02
1.602799999999999955e+03,7.700000000000001288e-02
1.604799999999999955e+03,8.999999999999999667e-02
1.606700000000000045e+03,9.775000000000000355e-02
1.608599999999999909e+03,1.127500000000000169e-01
1.610599999999999909e+03,1.280000000000000027e-01
1.612500000000000000e+03,1.435000000000000164e-01
1.614400000000000091e+03,1.590000000000000302e-01
1.616299999999999955e+03,1.820000000000000229e-01
1.618299999999999955e+03,2.127500000000000224e-01
1.620200000000000045e+03,2.359999999999999876e-01
1.622099999999999909e+03,2.667499999999999871e-01
1.624099999999999909e+03,2.975000000000000422e-01
1.626000000000000000e+03,3.357499999999999929e-01
1.627900000000000091e+03,3.662499999999999645e-01
1.629799999999999955e+03,4.040000000000000258e-01
1.631799999999999955e+03,4.337500000000000244e-01
1.633700000000000045e+03,4.555000000000000160e-01
1.635599999999999909e+03,4.622499999999999387e-01
1.637599999999999909e+03,4.390000000000000013e-01
1.639500000000000000e+03,4.005000000000000226e-01
1.641400000000000091e+03,3.547500000000000098e-01
1.643299999999999955e+03,3.162499999999999756e-01
1.645299999999999955e+03,2.780000000000000249e-01
1.647200000000000045e+03,2.394999999999999907e-01
1.649099999999999909e+03,2.162500000000000255e-01
1.651099999999999909e+03,1.930000000000000049e-01
1.653000000000000000e+03,1.700000000000000122e-01
1.654900000000000091e+03,1.545000000000000262e-01
1.656799999999999955e+03,1.390000000000000124e-01
1.658799999999999955e+03,1.234999999999999987e-01
1.660700000000000045e+03,1.154999999999999916e-01
1.662599999999999909e+03,1.002500000000000058e-01
1.664599999999999909e+03,8.487500000000000600e-02
1.666500000000000000e+03,7.552500000000000879e-02
1.668400000000000091e+03,6.400000000000000133e-02
1.670299999999999955e+03,5.325000000000000566e-02
1.672299999999999955e+03,4.477500000000000230e-02
1.674200000000000045e+03,3.782500000000000445e-02
1.676099999999999909e+03,3.162500000000000033e-02
1.678099999999999909e+03,2.620000000000000107e-02
1.680000000000000000e+03,2.079999999999999905e-02
1.681900000000000091e+03,1.615000000000000116e-02
1.683799999999999955e+03,1.230000000000000017e-02
1.685799999999999955e+03,9.215000000000000968e-03
1.687700000000000045e+03,6.450000000000000004e-03
1.689599999999999909e+03,4.692500000000000490e-03
1.691599999999999909e+03,3.409999999999999837e-03
1.693500000000000000e+03,2.375000000000000375e-03
1.695400000000000091e+03,1.505000000000000044e-03
1.697299999999999955e+03,8.975000000000000772e-04
1.699299999999999955e+03,4.899999999999999842e-04
1.701200000000000045e+03,2.784999999999999932e-04
1.703099999999999909e+03,2.732750000000000153e-04
1.705099999999999909e+03,2.669999999999999847e-04
1.707000000000000000e+03,2.802500000000000087e-04
1.708900000000000091e+03,3.142500000000000219e-04
1.710900000000000091e+03,3.602500000000000016e-04
1.712799999999999955e+03,3.679999999999999461e-04
1.714700000000000045e+03,3.775000000000000144e-04
1.716599999999999909e+03,4.000000000000000192e-04
1.718599999999999909e+03,5.550000000000000462e-04
1.720500000000000000e+03,9.125000000000000082e-04
1.722400000000000091e+03,1.362499999999999996e-03
1.724400000000000091e+03,1.927499999999999960e-03
1.726299999999999955e+03,2.632499999999999857e-03
1.728200000000000045e+03,3.322499999999999933e-03
1.730099999999999909e+03,4.042500000000000086e-03
1.732099999999999909e+03,4.467500000000000117e-03
1.734000000000000000e+03,4.415000000000000521e-03
1.735900000000000091e+03,4.255000000000000102e-03
1.737900000000000091e+03,3.617500000000000056e-03
1.739799999999999955e+03,2.839999999999999643e-03
1.741700000000000045e+03,2.154999999999999798e-03
1.743599999999999909e+03,1.619999999999999912e-03
1.745599999999999909e+03,1.187499999999999971e-03
1.747500000000000000e+03,8.350000000000000217e-04
1.749400000000000091e+03,5.200000000000000629e-04
1.751400000000000091e+03,3.649999999999999816e-04
1.753299999999999955e+03,3.199999999999999720e-04
1.755200000000000045e+03,3.254999999999999972e-04
1.757099999999999909e+03,3.330000000000000169e-04
1.759099999999999909e+03,3.525000000000000030e-04
1.761000000000000000e+03,2.480000000000000108e-04
1.762900000000000091e+03,1.597500000000000070e-04
1.764900000000000091e+03,1.110000000000000147e-04
1.766799999999999955e+03,6.525000000000000038e-05
1.768700000000000045e+03,-2.499999999999993005e-07
1.770599999999999909e+03,-7.600000000000000418e-05
1.772599999999999909e+03,-1.249999999999999755e-04
1.774500000000000000e+03,-1.010000000000000020e-04
1.776400000000000091e+03,-4.375000000000000633e-05
1.778400000000000091e+03,3.000000000000001770e-06
1.780299999999999955e+03,1.350000000000000119e-05
1.782200000000000045e+03,8.999999999999998534e-06
1.784099999999999909e+03,1.300000000000000089e-05
1.786099999999999909e+03,5.324999999999999330e-05
1.788000000000000000e+03,9.999999999999999124e-05
1.789900000000000091e+03,1.107249999999999944e-04
1.791900000000000091e+03,9.887499999999999100e-05
1.793799999999999955e+03,1.107499999999999950e-04
1.795700000000000045e+03,1.722499999999999856e-04
1.797599999999999909e+03,2.097499999999999755e-04
1.799599999999999909e+03,2.287500000000000037e-04
1.801500000000000000e+03,2.652500000000000235e-04
1.803400000000000091e+03,3.014999999999999560e-04
1.805400000000000091e+03,3.450000000000000375e-04
1.807299999999999955e+03,3.575000000000000161e-04
1.809200000000000045e+03,3.497500000000000175e-04
1.811099999999999909e+03,3.207500000000000173e-04
1.813099999999999909e+03,3.000000000000000279e-04
1.815000000000000000e+03,2.700000000000000035e-04
1.816900000000000091e+03,1.964999999999999787e-04
1.818900000000000091e+03,2.320000000000000014e-04
1.820799999999999955e+03,3.099999999999999999e-04
1.822700000000000045e+03,3.199999999999999720e-04
1.824700000000000045e+03,2.424999999999999855e-04
1.826599999999999909e+03,1.775000000000000048e-04
1.828500000000000000e+03,1.487500000000000107e-04
1.830400000000000091e+03,1.244999999999999904e-04
1.832400000000000091e+03,9.160000000000000390e-05
1.834299999999999955e+03,7.274999999999999295e-05
1.836200000000000045e+03,7.250000000000000043e-05
1.838200000000000045e+03,6.200000000000000270e-05
1.840099999999999909e+03,2.475000000000000190e-05
1.842000000000000000e+03,-5.160000000000000063e-05
1.843900000000000091e+03,-1.189999999999999923e-04
1.845900000000000091e+03,-1.044999999999999786e-04
1.847799999999999955e+03,-3.274999999999999645e-05
1.849700000000000045e+03,8.824999999999999362e-06
1.851700000000000045e+03,-2.000000000000000502e-05
1.853599999999999909e+03,-5.899999999999999754e-05
1.855500000000000000e+03,-5.124999999999999890e-05
1.857400000000000091e+03,-1.345000000000000167e-05
1.859400000000000091e+03,8.825000000000001056e-06
1.861299999999999955e+03,9.100000000000000965e-06
1.863200000000000045e+03,1.757500000000000029e-05
1.865200000000000045e+03,2.320000000000000149e-05
1.867099999999999909e+03,7.250000000000000043e-06
1.869000000000000000e+03,1.210000000000000104e-05
1.870900000000000091e+03,4.049999999999999510e-05
1.872900000000000091e+03,7.152500000000000383e-05
1.874799999999999955e+03,8.700000000000000051e-05
1.876700000000000045e+03,9.974999999999998516e-05
1.878700000000000045e+03,1.067499999999999927e-04
1.880599999999999909e+03,1.000000000000000048e-04
1.882500000000000000e+03,1.054999999999999894e-04
1.884400000000000091e+03,1.450000000000000009e-04
1.886400000000000091e+03,1.774999999999999777e-04
1.888299999999999955e+03,1.550000000000000271e-04
1.890200000000000045e+03,1.624999999999999925e-04
1.892200000000000045e+03,2.075000000000000022e-04
1.894099999999999909e+03,2.175000000000000284e-04
1.896000000000000000e+03,1.900000000000000105e-04
1.897900000000000091e+03,1.875000000000000039e-04
1.899900000000000091e+03,1.800000000000000113e-04
1.901799999999999955e+03,1.900000000000000105e-04
1.903700000000000045e+03,2.075000000000000022e-04
1.905700000000000045e+03,2.175000000000000013e-04
1.907599999999999909e+03,2.175000000000000284e-04
1.909500000000000000e+03,2.175000000000000284e-04
1.911400000000000091e+03,1.924999999999999899e-04
1.913400000000000091e+03,1.590000000000000159e-04
1.915299999999999955e+03,1.404999999999999999e-04
1.917200000000000045e+03,1.440000000000000036e-04
1.919200000000000045e+03,1.450000000000000009e-04
1.921099999999999909e+03,1.112499999999999936e-04
1.923000000000000000e+03,6.124999999999999802e-05
1.924900000000000091e+03,6.404999999999999832e-05
1.926900000000000091e+03,1.042499999999999997e-04
1.928799999999999955e+03,1.240000000000000054e-04
1.930700000000000045e+03,1.420000000000000092e-04
1.932700000000000045e+03,1.949999999999999965e-04
1.934599999999999909e+03,2.500000000000000052e-04
1.936500000000000000e+03,2.374999999999999995e-04
1.938500000000000000e+03,1.899999999999999834e-04
1.940400000000000091e+03,1.900000000000000105e-04
1.942299999999999955e+03,2.500000000000000052e-04
1.944200000000000045e+03,2.900000000000000017e-04
1.946200000000000045e+03,2.624999999999999838e-04
1.948099999999999909e+03,1.800000000000000113e-04
1.950000000000000000e+03,1.500000000000000140e-04
1.952000000000000000e+03,1.925000000000000170e-04
1.953900000000000091e+03,1.824999999999999908e-04
1.955799999999999955e+03,6.274999999999999383e-05
1.957700000000000045e+03,1.049999999999999972e-08
1.959700000000000045e+03,2.769999999999999906e-05
1.961599999999999909e+03,1.057499999999999955e-04
1.963500000000000000e+03,1.452500000000000069e-04
1.965500000000000000e+03,2.224999999999999873e-04
1.967400000000000091e+03,3.125000000000000065e-04
1.969299999999999955e+03,2.974999999999999672e-04
1.971200000000000045e+03,2.050000000000000227e-04
1.973200000000000045e+03,1.975000000000000301e-04
1.975099999999999909e+03,3.224999999999999785e-04
1.977000000000000000e+03,8.524999999999999592e-04
1.979000000000000000e+03,1.749999999999999820e-03
1.980900000000000091e+03,2.099999999999999870e-03
1.982799999999999955e+03,1.799999999999999951e-03
1.984700000000000045e+03,1.475000000000000182e-03
1.986700000000000045e+03,1.374999999999999920e-03
1.988599999999999909e+03,1.274999999999999875e-03
1.990500000000000000e+03,1.124999999999999915e-03
1.992500000000000000e+03,1.027499999999999985e-03
1.994400000000000091e+03,9.224999999999999260e-04
1.996299999999999955e+03,8.775000000000000248e-04
1.998200000000000045e+03,8.174999999999999758e-04
2.000200000000000045e+03,7.099999999999999107e-04
2.002099999999999909e+03,5.274999999999999741e-04
2.004000000000000000e+03,2.449999999999999921e-04
2.006000000000000000e+03,4.920000000000000328e-05
2.007900000000000091e+03,1.565000000000000093e-04
2.009799999999999955e+03,3.825000000000000275e-04
2.011700000000000045e+03,4.524999999999999942e-04
2.013700000000000045e+03,4.375000000000000091e-04
2.015599999999999909e+03,4.499999999999999877e-04
2.017500000000000000e+03,4.325000000000000502e-04
2.019500000000000000e+03,4.025000000000000257e-04
2.021400000000000091e+03,4.400000000000000157e-04
2.023299999999999955e+03,5.050000000000000235e-04
2.025200000000000045e+03,5.550000000000000462e-04
2.027200000000000045e+03,5.400000000000000069e-04
2.029099999999999909e+03,4.524999999999999942e-04
2.031000000000000000e+03,3.924999999999999995e-04
2.033000000000000000e+03,4.899999999999999842e-04
2.034900000000000091e+03,8.175000000000000842e-04
2.036799999999999955e+03,1.147500000000000082e-03
2.038700000000000045e+03,1.374999999999999920e-03
2.040700000000000045e+03,1.425000000000000051e-03
2.042599999999999909e+03,1.250000000000000026e-03
2.044500000000000000e+03,1.105000000000000079e-03
2.046500000000000000e+03,1.325000000000000006e-03
2.048400000000000091e+03,1.874999999999999931e-03
2.050300000000000182e+03,2.350000000000000092e-03
2.052300000000000182e+03,2.150000000000000001e-03
2.054199999999999818e+03,1.749999999999999820e-03
2.056099999999999909e+03,1.600000000000000077e-03
2.058000000000000000e+03,1.600000000000000077e-03
2.060000000000000000e+03,1.524999999999999880e-03
2.061900000000000091e+03,1.500000000000000031e-03
2.063800000000000182e+03,1.575000000000000011e-03
2.065800000000000182e+03,1.649999999999999991e-03
2.067699999999999818e+03,1.699999999999999905e-03
2.069599999999999909e+03,1.799999999999999951e-03
2.071500000000000000e+03,1.874999999999999931e-03
2.073500000000000000e+03,1.899999999999999996e-03
2.075400000000000091e+03,1.899999999999999996e-03
2.077300000000000182e+03,1.975000000000000193e-03
2.079300000000000182e+03,2.224999999999999981e-03
2.081199999999999818e+03,2.299999999999999961e-03
2.083099999999999909e+03,2.299999999999999961e-03
2.085000000000000000e+03,2.200000000000000133e-03
2.087000000000000000e+03,2.024999999999999890e-03
2.088900000000000091e+03,2.000000000000000042e-03
2.090800000000000182e+03,1.825000000000000016e-03
2.092800000000000182e+03,1.724999999999999971e-03
2.094699999999999818e+03,1.799999999999999951e-03
2.096599999999999909e+03,2.000000000000000042e-03
2.098500000000000000e+03,2.125000000000000153e-03
2.100500000000000000e+03,2.200000000000000133e-03
2.102400000000000091e+03,2.174999999999999850e-03
2.104300000000000182e+03,2.275000000000000112e-03
2.106300000000000182e+03,2.374999999999999941e-03
2.108199999999999818e+03,2.399999999999999790e-03
2.110099999999999909e+03,2.425000000000000072e-03
2.112000000000000000e+03,2.399999999999999790e-03
2.114000000000000000e+03,2.449999999999999921e-03
2.115900000000000091e+03,2.425000000000000072e-03
2.117800000000000182e+03,2.224999999999999981e-03
2.119800000000000182e+03,2.125000000000000153e-03
2.121699999999999818e+03,2.075000000000000022e-03
2.123599999999999909e+03,1.925000000000000062e-03
2.125500000000000000e+03,1.724999999999999971e-03
2.127500000000000000e+03,1.549999999999999946e-03
2.129400000000000091e+03,1.325000000000000223e-03
2.131300000000000182e+03,1.024999999999999870e-03
2.133300000000000182e+03,8.425000000000000414e-04
2.135199999999999818e+03,1.037500000000000011e-03
2.137099999999999909e+03,1.410000000000000229e-03
2.139000000000000000e+03,1.592500000000000165e-03
2.141000000000000000e+03,1.582500000000000139e-03
2.142900000000000091e+03,1.410000000000000229e-03
2.144800000000000182e+03,1.392500000000000075e-03
2.146800000000000182e+03,1.390000000000000176e-03
2.148699999999999818e+03,1.479999999999999979e-03
2.150599999999999909e+03,1.417500000000000140e-03
2.152500000000000000e+03,1.075000000000000001e-03
2.154500000000000000e+03,3.899999999999999929e-04
2.156400000000000091e+03,1.500000000000000038e-06
2.158300000000000182e+03,6.225000000000000065e-04
2.160300000000000182e+03,2.275000000000000112e-03
2.162199999999999818e+03,3.374999999999999528e-03
2.164099999999999909e+03,3.449999999999999942e-03
2.166099999999999909e+03,3.299999999999999982e-03
2.168000000000000000e+03,3.199999999999999720e-03
2.169900000000000091e+03,2.875000000000000385e-03
2.171800000000000182e+03,2.399999999999999790e-03
2.173800000000000182e+03,2.075000000000000022e-03
2.175699999999999818e+03,2.150000000000000001e-03
2.177599999999999909e+03,2.249999999999999830e-03
2.179599999999999909e+03,2.224999999999999981e-03
2.181500000000000000e+03,2.299999999999999961e-03
2.183400000000000091e+03,2.599999999999999881e-03
2.185300000000000182e+03,2.724999999999999992e-03
2.187300000000000182e+03,2.624999999999999729e-03
2.189199999999999818e+03,2.449999999999999921e-03
2.191099999999999909e+03,2.350000000000000092e-03
2.193099999999999909e+03,2.200000000000000133e-03
2.195000000000000000e+03,2.050000000000000173e-03
2.196900000000000091e+03,1.824999999999999799e-03
2.198800000000000182e+03,1.625000000000000142e-03
2.200800000000000182e+03,1.600000000000000077e-03
2.202699999999999818e+03,1.575000000000000011e-03
2.204599999999999909e+03,1.500000000000000031e-03
2.206599999999999909e+03,1.500000000000000031e-03
2.208500000000000000e+03,1.425000000000000051e-03
2.210400000000000091e+03,1.350000000000000071e-03
2.212300000000000182e+03,1.175000000000000046e-03
2.214300000000000182e+03,1.100000000000000066e-03
2.216199999999999818e+03,1.095000000000000053e-03
2.218099999999999909e+03,1.012499999999999945e-03
2.220099999999999909e+03,8.300000000000000086e-04
2.222000000000000000e+03,6.924999999999999732e-04
2.223900000000000091e+03,6.250000000000000130e-04
2.225800000000000182e+03,5.875000000000000231e-04
2.227800000000000182e+03,5.625000000000000659e-04
2.229699999999999818e+03,5.324999999999999872e-04
2.231599999999999909e+03,5.200000000000000629e-04
2.233599999999999909e+03,5.375000000000000003e-04
2.235500000000000000e+03,4.954999999999999552e-04
2.237400000000000091e+03,4.047250000000000392e-04
2.239300000000000182e+03,3.840000000000000097e-04
2.241300000000000182e+03,4.532500000000000396e-04
2.243199999999999818e+03,4.352500000000000357e-04
2.245099999999999909e+03,3.744975000000000105e-04
2.247099999999999909e+03,3.840000000000000097e-04
2.249000000000000000e+03,3.800000000000000209e-04
2.250900000000000091e+03,3.620000000000000171e-04
2.252800000000000182e+03,3.519500000000000167e-04
2.254800000000000182e+03,4.499999999999999877e-04
2.256699999999999818e+03,6.024999999999999540e-04
2.258599999999999909e+03,6.225000000000000065e-04
2.260599999999999909e+03,5.599999999999999509e-04
2.262500000000000000e+03,5.050000000000000235e-04
2.264400000000000091e+03,5.375000000000000003e-04
2.266300000000000182e+03,6.375000000000000458e-04
2.268300000000000182e+03,7.424999999999999959e-04
2.270199999999999818e+03,8.500000000000000611e-04
2.272099999999999909e+03,9.025000000000000903e-04
2.274099999999999909e+03,9.474999999999999915e-04
2.276000000000000000e+03,9.625000000000000309e-04
2.277900000000000091e+03,9.950000000000000077e-04
2.279800000000000182e+03,9.950000000000000077e-04
2.281800000000000182e+03,1.042500000000000024e-03
2.283699999999999818e+03,1.137500000000000056e-03
2.285599999999999909e+03,1.207499999999999806e-03
2.287599999999999909e+03,1.197499999999999997e-03
2.289500000000000000e+03,1.160000000000000007e-03
2.291400000000000091e+03,1.059999999999999961e-03
2.293400000000000091e+03,9.975000000000001227e-04
2.295300000000000182e+03,9.274999999999999391e-04
2.297199999999999818e+03,8.650000000000001004e-04
2.299099999999999909e+03,8.350000000000000217e-04
2.301099999999999909e+03,7.975000000000000318e-04
2.303000000000000000e+03,7.674999999999999531e-04
2.304900000000000091e+03,7.299999999999999632e-04
2.306900000000000091e+03,6.750000000000000357e-04
2.308800000000000182e+03,6.700000000000000226e-04
2.310699999999999818e+03,6.475000000000000720e-04
2.312599999999999909e+03,6.424999999999999505e-04
2.314599999999999909e+03,6.449999999999999570e-04
2.316500000000000000e+03,6.475000000000000720e-04
2.318400000000000091e+03,6.499999999999999702e-04
2.320400000000000091e+03,6.775000000000000423e-04
2.322300000000000182e+03,7.374999999999999828e-04
2.324199999999999818e+03,7.399999999999999894e-04
2.326099999999999909e+03,6.250000000000000130e-04
2.328099999999999909e+03,4.849999999999999711e-04
2.330000000000000000e+03,3.964999999999999883e-04
2.331900000000000091e+03,3.595000000000000105e-04
2.333900000000000091e+03,3.239999999999999608e-04
2.335800000000000182e+03,3.142499999999999677e-04
2.337699999999999818e+03,3.062249999999999760e-04
2.339599999999999909e+03,2.745500000000000327e-04
2.341599999999999909e+03,2.674999999999999969e-04
2.343500000000000000e+03,2.615000000000000137e-04
2.345400000000000091e+03,2.290000000000000098e-04
2.347400000000000091e+03,2.192499999999999896e-04
2.349300000000000182e+03,2.042500000000000045e-04
2.351199999999999818e+03,1.832500000000000090e-04
2.353099999999999909e+03,1.629999999999999776e-04
2.355099999999999909e+03,1.450000000000000009e-04
2.357000000000000000e+03,1.302499999999999947e-04
2.358900000000000091e+03,1.095000000000000053e-04
2.360900000000000091e+03,8.275000000000000563e-05
2.362800000000000182e+03,5.174999999999999750e-05
2.364699999999999818e+03,2.799999999999999619e-05
2.366599999999999909e+03,1.325000000000000358e-05
2.368599999999999909e+03,1.175000000000000100e-05
2.370500000000000000e+03,2.424999999999999991e-05
2.372400000000000091e+03,4.075000000000000117e-05
2.374400000000000091e+03,5.374999999999999190e-05
2.376300000000000182e+03,6.748050000000000554e-05
2.378199999999999818e+03,6.200000000000000270e-05
2.380099999999999909e+03,5.949999999999999614e-05
2.382099999999999909e+03,5.200000000000000358e-05
2.384000000000000000e+03,3.824999999999999462e-05
2.385900000000000091e+03,1.849999999999998889e-05
2.387900000000000091e+03,-2.250000000000000481e-06
2.389800000000000182e+03,-1.900000000000000105e-05
2.391699999999999818e+03,-4.750000000000000262e-05
2.393599999999999909e+03,-7.625000000000001026e-05
2.395599999999999909e+03,-1.012499999999999945e-04
2.397500000000000000e+03,-1.119499999999999971e-04
2.399400000000000091e+03,-1.269750000000000100e-04
2.401400000000000091e+03,-1.350000000000000017e-04
2.403300000000000182e+03,-1.395000000000000027e-04
2.405199999999999818e+03,-1.287500000000000124e-04
2.407199999999999818e+03,-9.250000000000001223e-05
2.409099999999999909e+03,-7.250000000000000043e-05
2.411000000000000000e+03,-7.250000000000000043e-05
2.412900000000000091e+03,-9.000000000000000567e-05
2.414900000000000091e+03,-9.750000000000001179e-05
2.416800000000000182e+03,-9.250000000000001223e-05
2.418699999999999818e+03,-1.099999999999999904e-04
2.420699999999999818e+03,-1.250000000000000026e-04
2.422599999999999909e+03,-1.275000000000000092e-04
2.424500000000000000e+03,-9.500000000000000523e-05
2.426400000000000091e+03,-2.350000000000000201e-05
2.428400000000000091e+03,2.274999999999999733e-05
2.430300000000000182e+03,2.549999999999999641e-05
2.432199999999999818e+03,4.922500000000000389e-05
2.434199999999999818e+03,9.275000000000000475e-05
2.436099999999999909e+03,1.650000000000000262e-04
2.438000000000000000e+03,2.049999999999999956e-04
2.439900000000000091e+03,2.025000000000000161e-04
2.441900000000000091e+03,1.975000000000000301e-04
2.443800000000000182e+03,2.500000000000000052e-04
2.445699999999999818e+03,3.024999999999999803e-04
2.447699999999999818e+03,3.159999999999999832e-04
2.449599999999999909e+03,2.950000000000000148e-04
2.451500000000000000e+03,2.750000000000000166e-04
2.453400000000000091e+03,2.649999999999999903e-04
2.455400000000000091e+03,2.550000000000000183e-04
2.457300000000000182e+03,2.400000000000000061e-04
2.459199999999999818e+03,1.725000000000000188e-04
2.461199999999999818e+03,9.124999999999999539e-05
2.463099999999999909e+03,6.050000000000000690e-05
2.465000000000000000e+03,3.957499999999999972e-05
2.466900000000000091e+03,-6.250000000000002841e-06
2.468900000000000091e+03,-4.425000000000000493e-05
2.470800000000000182e+03,-4.800000000000000799e-05
2.472699999999999818e+03,-2.724999999999999829e-05
2.474699999999999818e+03,-4.749999999999999414e-06
2.476599999999999909e+03,1.250000000000004973e-07
2.478500000000000000e+03,-8.750000000000002622e-06
2.480400000000000091e+03,-1.674999999999999718e-05
2.482400000000000091e+03,-3.500000000000000371e-06
2.484300000000000182e+03,1.952500000000000025e-05
2.486199999999999818e+03,2.125000000000000153e-05
2.488199999999999818e+03,1.724999999999999917e-05
2.490099999999999909e+03,1.467500000000000264e-05
2.492000000000000000e+03,2.125000000000000153e-05
2.493900000000000091e+03,2.630000000000000230e-05
2.495900000000000091e+03,2.249999999999999803e-05
2.497800000000000182e+03,-5.749999999999997463e-06
2.499699999999999818e+03,-4.925000000000000449e-05
2.501699999999999818e+03,-7.550000000000000558e-05
2.503599999999999909e+03,-8.974999999999998604e-05
2.505500000000000000e+03,-8.499999999999997900e-05
2.507400000000000091e+03,-8.249999999999998600e-05
2.509400000000000091e+03,-1.219999999999999974e-04
2.511300000000000182e+03,-1.627500000000000257e-04
2.513199999999999818e+03,-1.725000000000000188e-04
2.515199999999999818e+03,-1.749999999999999982e-04
2.517099999999999909e+03,-1.884999999999999740e-04
2.519000000000000000e+03,-1.932500000000000081e-04
2.521000000000000000e+03,-1.969999999999999909e-04
2.522900000000000091e+03,-1.889999999999999862e-04
2.524800000000000182e+03,-1.557499999999999911e-04
2.526699999999999818e+03,-1.237499999999999993e-04
2.528699999999999818e+03,-1.319999999999999830e-04
2.530599999999999909e+03,-1.367499999999999901e-04
2.532500000000000000e+03,-1.160000000000000142e-04
2.534500000000000000e+03,-6.874999999999999059e-05
2.536400000000000091e+03,-1.725000000000000255e-05
2.538300000000000182e+03,5.174999999999999750e-05
2.540199999999999818e+03,1.184999999999999937e-04
2.542199999999999818e+03,1.442500000000000097e-04
2.544099999999999909e+03,1.487499999999999836e-04
2.546000000000000000e+03,1.392499999999999966e-04
2.548000000000000000e+03,1.552500000000000061e-04
2.549900000000000091e+03,1.635000000000000168e-04
2.551800000000000182e+03,1.138500000000000026e-04
2.553699999999999818e+03,4.800000000000000122e-05
2.555699999999999818e+03,3.600000000000000261e-06
2.557599999999999909e+03,-1.124999999999999732e-05
2.559500000000000000e+03,-1.674999999999999718e-05
2.561500000000000000e+03,-1.025000000000000181e-05
2.563400000000000091e+03,-2.649999999999999700e-05
2.565300000000000182e+03,-5.975000000000000222e-05
2.567199999999999818e+03,-8.125000000000000982e-05
2.569199999999999818e+03,-7.107499999999999289e-05
2.571099999999999909e+03,-5.374999999999999190e-05
2.573000000000000000e+03,-4.425000000000000493e-05
2.575000000000000000e+03,-5.000000000000000240e-05
2.576900000000000091e+03,-5.000000000000000240e-05
2.578800000000000182e+03,-1.324999999999999681e-05
2.580699999999999818e+03,2.275000000000000411e-05
2.582699999999999818e+03,1.925000000000000035e-05
2.584599999999999909e+03,-7.249999999999993266e-06
2.586500000000000000e+03,-3.499999999999999693e-05
2.588500000000000000e+03,-4.750000000000000262e-05
2.590400000000000091e+03,-2.374999999999999453e-05
2.592300000000000182e+03,7.999999999999997944e-06
2.594199999999999818e+03,2.699999999999999899e-05
2.596199999999999818e+03,3.499999999999999693e-05
2.598099999999999909e+03,3.600000000000000091e-05
2.600000000000000000e+03,5.243550000000000305e-05
2.602000000000000000e+03,4.825000000000000052e-05
2.603900000000000091e+03,5.925000000000000362e-05
2.605800000000000182e+03,4.075000000000000117e-05
2.607699999999999818e+03,-6.776263578034402713e-21
2.609699999999999818e+03,-3.000000000000000415e-05
2.611599999999999909e+03,-4.999999999999998884e-05
2.613500000000000000e+03,-7.000000000000002097e-05
2.615500000000000000e+03,-7.500000000000000698e-05
2.617400000000000091e+03,-3.499999999999999693e-05
2.619300000000000182e+03,2.274999999999999733e-05
2.621199999999999818e+03,5.075000000000000030e-05
2.623199999999999818e+03,5.124999999999999890e-05
2.625099999999999909e+03,5.174999999999999750e-05
2.627000000000000000e+03,7.050000000000000602e-05
2.629000000000000000e+03,1.084999999999999946e-04
2.630900000000000091e+03,1.419974999999999970e-04
2.632800000000000182e+03,1.767500000000000137e-04
2.634800000000000182e+03,2.237499999999999906e-04
2.636699999999999818e+03,2.550000000000000183e-04
2.638599999999999909e+03,2.575000000000000249e-04
2.640500000000000000e+03,2.525000000000000118e-04
2.642500000000000000e+03,2.774999999999999689e-04
2.644400000000000091e+03,3.249999999999999851e-04
2.646300000000000182e+03,3.699999999999999947e-04
2.648300000000000182e+03,3.800000000000000209e-04
2.650199999999999818e+03,3.750000000000000078e-04
2.652099999999999909e+03,3.924999999999999995e-04
2.654000000000000000e+03,4.275000000000000371e-04
2.656000000000000000e+03,4.375000000000000091e-04
2.657900000000000091e+03,4.150000000000000043e-04
2.659800000000000182e+03,3.750000000000000078e-04
2.661800000000000182e+03,3.149999999999999589e-04
2.663699999999999818e+03,2.249999999999999938e-04
2.665599999999999909e+03,1.439999999999999765e-04
2.667500000000000000e+03,8.475000000000000003e-05
2.669500000000000000e+03,5.610000000000000159e-05
2.671400000000000091e+03,5.675000000000000384e-05
2.673300000000000182e+03,8.075000000000001122e-05
2.675300000000000182e+03,8.674999999999999443e-05
2.677199999999999818e+03,8.899999999999999491e-05
2.679099999999999909e+03,1.100000000000000039e-04
2.681000000000000000e+03,1.422500000000000153e-04
2.683000000000000000e+03,1.312499999999999919e-04
2.684900000000000091e+03,9.075000000000001035e-05
2.686800000000000182e+03,6.050000000000000690e-05
2.688800000000000182e+03,3.325000000000000183e-05
2.690699999999999818e+03,3.275000000000000408e-06
2.692599999999999909e+03,-8.000000000000001332e-06
2.694500000000000000e+03,1.974999999999999895e-05
2.696500000000000000e+03,5.325000000000000685e-05
2.698400000000000091e+03,4.987499999999999936e-05
2.700300000000000182e+03,1.175000000000000100e-05
2.702300000000000182e+03,-2.324999999999999932e-05
2.704199999999999818e+03,-2.724999999999999829e-05
2.706099999999999909e+03,-5.697500000000000084e-06
2.708000000000000000e+03,2.124999999999999814e-05
2.710000000000000000e+03,4.825000000000000052e-05
2.711900000000000091e+03,7.615000000000000783e-05
2.713800000000000182e+03,5.425000000000000406e-05
2.715800000000000182e+03,3.125000000000000065e-05
2.717699999999999818e+03,1.427499999999999970e-05
2.719599999999999909e+03,4.999999999999999562e-06
2.721500000000000000e+03,2.999999999999998382e-06
2.723500000000000000e+03,1.525000000000000476e-05
2.725400000000000091e+03,3.725000000000000419e-05
2.727300000000000182e+03,5.699999999999998959e-05
2.729300000000000182e+03,5.925000000000000362e-05
2.731199999999999818e+03,5.275000000000000825e-05
2.733099999999999909e+03,3.549999999999999553e-05
2.735000000000000000e+03,1.750000000000001880e-05
2.737000000000000000e+03,2.999999999999999737e-05
2.738900000000000091e+03,5.700000000000000314e-05
2.740800000000000182e+03,5.100000000000000637e-05
2.742800000000000182e+03,2.250000000000001836e-05
2.744699999999999818e+03,1.500000000000001224e-05
2.746599999999999909e+03,1.000000000000001268e-05
2.748500000000000000e+03,-1.000000000000001268e-05
2.750500000000000000e+03,-4.000000000000001005e-05
2.752400000000000091e+03,-7.749999999999997288e-05
2.754300000000000182e+03,-1.150000000000000306e-04
2.756300000000000182e+03,-1.324999999999999952e-04
2.758199999999999818e+03,-1.175000000000000100e-04
2.760099999999999909e+03,-8.500000000000000611e-05
2.762099999999999909e+03,-3.749999999999996283e-05
2.764000000000000000e+03,2.500000000000001136e-05
2.765900000000000091e+03,1.050000000000000044e-04
2.767800000000000182e+03,2.015999999999999943e-04
2.769800000000000182e+03,3.099999999999999457e-04
2.771699999999999818e+03,4.349999999999999483e-04
2.773599999999999909e+03,5.749999999999999903e-04
2.775599999999999909e+03,7.225000000000000519e-04
2.777500000000000000e+03,8.674999999999999985e-04
2.779400000000000091e+03,1.020000000000000073e-03
2.781300000000000182e+03,1.149999999999999981e-03
2.783300000000000182e+03,1.399999999999999986e-03
2.785199999999999818e+03,1.575000000000000011e-03
2.787099999999999909e+03,1.750000000000000036e-03
2.789099999999999909e+03,1.925000000000000062e-03
2.791000000000000000e+03,2.174999999999999850e-03
2.792900000000000091e+03,2.374999999999999941e-03
2.794800000000000182e+03,2.549999999999999750e-03
2.796800000000000182e+03,2.825000000000000254e-03
2.798699999999999818e+03,3.074999999999999609e-03
2.800599999999999909e+03,3.350000000000000113e-03
2.802599999999999909e+03,3.624999999999999750e-03
2.804500000000000000e+03,3.899999999999999821e-03
2.806400000000000091e+03,4.275000000000000154e-03
2.808300000000000182e+03,4.700000000000000185e-03
2.810300000000000182e+03,5.150000000000000064e-03
2.812199999999999818e+03,5.649999999999999641e-03
2.814099999999999909e+03,6.174999999999999933e-03
2.816099999999999909e+03,6.700000000000000226e-03
2.818000000000000000e+03,7.250000000000000368e-03
2.819900000000000091e+03,7.899999999999999037e-03
2.821800000000000182e+03,8.550000000000000308e-03
2.823800000000000182e+03,9.124999999999999431e-03
2.825699999999999818e+03,1.004999999999999991e-02
2.827599999999999909e+03,1.097500000000000211e-02
2.829599999999999909e+03,1.195000000000000055e-02
2.831500000000000000e+03,1.297500000000000042e-02
2.833400000000000091e+03,1.399999999999999856e-02
2.835300000000000182e+03,1.600000000000000033e-02
2.837300000000000182e+03,1.899999999999999953e-02
2.839199999999999818e+03,2.325000000000000330e-02
2.841099999999999909e+03,2.850000000000000103e-02
2.843099999999999909e+03,3.699999999999999817e-02
2.845000000000000000e+03,4.674999999999999989e-02
2.846900000000000091e+03,5.825000000000000316e-02
2.848800000000000182e+03,6.950000000000000622e-02
2.850800000000000182e+03,7.624999999999999833e-02
2.852699999999999818e+03,7.975000000000000144e-02
2.854599999999999909e+03,8.175000000000000322e-02
2.856599999999999909e+03,8.200000000000000344e-02
2.858500000000000000e+03,8.175000000000000322e-02
2.860400000000000091e+03,7.975000000000001532e-02
2.862300000000000182e+03,7.725000000000001310e-02
2.864300000000000182e+03,7.450000000000001066e-02
2.866199999999999818e+03,7.025000000000000688e-02
2.868099999999999909e+03,6.625000000000000333e-02
2.870099999999999909e+03,6.249999999999999306e-02
2.872000000000000000e+03,5.875000000000000361e-02
2.873900000000000091e+03,5.500000000000000028e-02
2.875900000000000091e+03,5.024999999999999606e-02
2.877800000000000182e+03,4.649999999999999967e-02
2.879699999999999818e+03,4.325000000000000372e-02
2.881599999999999909e+03,4.100000000000000172e-02
2.883599999999999909e+03,3.950000000000000039e-02
2.885500000000000000e+03,3.975000000000000061e-02
2.887400000000000091e+03,4.000000000000000083e-02
2.889400000000000091e+03,4.200000000000000261e-02
2.891300000000000182e+03,4.400000000000000439e-02
2.893199999999999818e+03,4.674999999999999989e-02
2.895099999999999909e+03,4.950000000000000233e-02
2.897099999999999909e+03,5.299999999999999850e-02
2.899000000000000000e+03,5.600000000000000117e-02
2.900900000000000091e+03,5.875000000000000361e-02
2.902900000000000091e+03,6.199999999999999956e-02
2.904800000000000182e+03,6.524999999999998856e-02
2.906699999999999818e+03,7.024999999999999301e-02
2.908599999999999909e+03,7.524999999999999745e-02
2.910599999999999909e+03,8.225000000000000366e-02
2.912500000000000000e+03,9.000000000000001055e-02
2.914400000000000091e+03,9.825000000000000400e-02
2.916400000000000091e+03,1.075000000000000122e-01
2.918300000000000182e+03,1.075000000000000122e-01
2.920199999999999818e+03,1.144999999999999907e-01
2.922099999999999909e+03,1.194999999999999951e-01
2.924099999999999909e+03,1.170000000000000068e-01
2.926000000000000000e+03,1.220000000000000112e-01
2.927900000000000091e+03,1.202500000000000097e-01
2.929900000000000091e+03,1.185000000000000081e-01
2.931800000000000182e+03,1.170000000000000068e-01
2.933699999999999818e+03,1.157500000000000057e-01
2.935599999999999909e+03,1.147500000000000048e-01
2.937599999999999909e+03,1.062500000000000111e-01
2.939500000000000000e+03,1.055000000000000104e-01
2.941400000000000091e+03,9.725000000000000311e-02
2.943400000000000091e+03,8.925000000000000988e-02
2.945300000000000182e+03,8.875000000000000944e-02
2.947199999999999818e+03,7.850000000000001421e-02
2.949099999999999909e+03,7.150000000000000799e-02
2.951099999999999909e+03,6.425000000000000155e-02
2.953000000000000000e+03,5.825000000000000316e-02
2.954900000000000091e+03,5.249999999999999806e-02
2.956900000000000091e+03,4.775000000000000078e-02
2.958800000000000182e+03,4.275000000000000328e-02
2.960699999999999818e+03,3.849999999999999950e-02
2.962599999999999909e+03,3.500000000000000333e-02
2.964599999999999909e+03,3.049999999999999586e-02
2.966500000000000000e+03,2.699999999999999969e-02
2.968400000000000091e+03,2.350000000000000006e-02
2.970400000000000091e+03,2.017500000000000196e-02
2.972300000000000182e+03,1.679999999999999896e-02
2.974199999999999818e+03,1.347500000000000087e-02
2.976099999999999909e+03,1.094999999999999966e-02
2.978099999999999909e+03,9.225000000000000561e-03
2.980000000000000000e+03,7.374999999999999611e-03
2.981900000000000091e+03,5.875000000000000014e-03
2.983900000000000091e+03,4.550000000000000225e-03
2.985800000000000182e+03,3.450000000000000375e-03
2.987699999999999818e+03,2.624999999999999729e-03
2.989699999999999818e+03,1.947500000000000012e-03
2.991599999999999909e+03,1.442499999999999772e-03
2.993500000000000000e+03,1.032499999999999998e-03
2.995400000000000091e+03,7.275000000000000650e-04
2.997400000000000091e+03,4.824999999999999645e-04
2.999300000000000182e+03,3.224999999999999785e-04
3.001199999999999818e+03,2.250000000000000209e-04
3.003199999999999818e+03,1.849999999999999973e-04
3.005099999999999909e+03,1.224999999999999960e-04
3.007000000000000000e+03,5.374999999999999190e-05
3.008900000000000091e+03,1.290000000000000016e-05
3.010900000000000091e+03,1.999999999999999486e-06
3.012800000000000182e+03,1.262500000000000025e-05
3.014699999999999818e+03,-4.525000000000000213e-05
3.016699999999999818e+03,-1.500000000000000140e-04
3.018599999999999909e+03,-2.207499999999999990e-04
3.020500000000000000e+03,-2.377500000000000056e-04
3.022400000000000091e+03,-2.150000000000000218e-04
3.024400000000000091e+03,-1.250000000000000026e-04
3.026300000000000182e+03,1.975000000000000572e-05
3.028199999999999818e+03,2.000000000000000096e-04
3.030199999999999818e+03,4.099999999999999912e-04
3.032099999999999909e+03,6.774999999999999339e-04
3.034000000000000000e+03,9.824999999999998665e-04
3.035900000000000091e+03,1.372499999999999805e-03
3.037900000000000091e+03,1.840000000000000056e-03
3.039800000000000182e+03,2.387500000000000299e-03
3.041699999999999818e+03,3.087499999999999533e-03
3.043699999999999818e+03,3.799999999999999992e-03
3.045599999999999909e+03,4.439999999999999503e-03
3.047500000000000000e+03,5.150000000000000064e-03
3.049400000000000091e+03,6.024999999999999974e-03
3.051400000000000091e+03,7.050000000000000711e-03
3.053300000000000182e+03,7.924999999999999753e-03
3.055199999999999818e+03,8.725000000000000117e-03
3.057199999999999818e+03,9.500000000000001499e-03
3.059099999999999909e+03,1.102500000000000008e-02
3.061000000000000000e+03,1.179999999999999973e-02
3.062900000000000091e+03,1.255000000000000039e-02
3.064900000000000091e+03,1.330000000000000106e-02
3.066800000000000182e+03,1.479999999999999892e-02
3.068699999999999818e+03,1.552499999999999887e-02
3.070699999999999818e+03,1.552499999999999887e-02
3.072599999999999909e+03,1.625000000000000056e-02
3.074500000000000000e+03,1.700000000000000122e-02
3.076400000000000091e+03,1.772500000000000117e-02
3.078400000000000091e+03,1.847500000000000184e-02
3.080300000000000182e+03,1.847500000000000184e-02
3.082199999999999818e+03,1.847500000000000184e-02
3.084199999999999818e+03,1.845000000000000112e-02
3.086099999999999909e+03,1.842500000000000041e-02
3.088000000000000000e+03,1.840000000000000316e-02
3.089900000000000091e+03,1.762500000000000178e-02
3.091900000000000091e+03,1.685000000000000039e-02
3.093800000000000182e+03,1.607499999999999901e-02
3.095699999999999818e+03,1.529999999999999936e-02
3.097699999999999818e+03,1.452499999999999798e-02
3.099599999999999909e+03,1.298750000000000078e-02
3.101500000000000000e+03,1.221249999999999940e-02
3.103500000000000000e+03,1.068500000000000005e-02
3.105400000000000091e+03,9.907499999999999640e-03
3.107300000000000182e+03,9.135000000000000758e-03
3.109199999999999818e+03,7.614999999999999374e-03
3.111199999999999818e+03,6.694999999999999563e-03
3.113099999999999909e+03,5.775000000000000619e-03
3.115000000000000000e+03,5.007499999999999798e-03
3.117000000000000000e+03,4.394999999999999601e-03
3.118900000000000091e+03,3.712500000000000088e-03
3.120800000000000182e+03,2.949999999999999498e-03
3.122699999999999818e+03,2.336249999999999785e-03
3.124699999999999818e+03,1.729249999999999884e-03
3.126599999999999909e+03,1.274999999999999875e-03
3.128500000000000000e+03,9.714999999999999244e-04
3.130500000000000000e+03,6.912500000000000241e-04
3.132400000000000091e+03,4.867499999999999865e-04
3.134300000000000182e+03,3.152499999999999920e-04
3.136199999999999818e+03,2.005249999999999817e-04
3.138199999999999818e+03,1.567250000000000012e-04
3.140099999999999909e+03,1.137500000000000138e-04
3.142000000000000000e+03,4.074999999999999440e-05
3.144000000000000000e+03,9.100000000000000753e-07
3.145900000000000091e+03,4.399999999999999886e-05
3.147800000000000182e+03,1.305000000000000279e-04
3.149699999999999818e+03,2.557500000000000094e-04
3.151699999999999818e+03,4.400000000000000157e-04
3.153599999999999909e+03,6.225000000000000065e-04
3.155500000000000000e+03,7.925000000000000187e-04
3.157500000000000000e+03,1.097499999999999951e-03
3.159400000000000091e+03,1.412500000000000127e-03
3.161300000000000182e+03,1.734999999999999997e-03
3.163199999999999818e+03,2.132499999999999847e-03
3.165199999999999818e+03,2.604999999999999677e-03
3.167099999999999909e+03,3.082499999999999737e-03
3.169000000000000000e+03,3.710000000000000190e-03
3.171000000000000000e+03,4.414999999999999654e-03
3.172900000000000091e+03,5.040000000000000209e-03
3.174800000000000182e+03,5.749999999999999903e-03
3.176699999999999818e+03,6.450000000000000872e-03
3.178699999999999818e+03,7.224999999999999652e-03
3.180599999999999909e+03,7.849999999999999339e-03
3.182500000000000000e+03,8.625000000000000722e-03
3.184500000000000000e+03,9.400000000000000369e-03
3.186400000000000091e+03,1.017500000000000002e-02
3.188300000000000182e+03,1.095000000000000140e-02
3.190199999999999818e+03,1.172499999999999931e-02
3.192199999999999818e+03,1.250000000000000069e-02
3.194099999999999909e+03,1.327500000000000034e-02
3.196000000000000000e+03,1.404999999999999825e-02
3.198000000000000000e+03,1.407499999999999724e-02
3.199900000000000091e+03,1.484999999999999862e-02
3.201800000000000182e+03,1.559999999999999928e-02
3.203699999999999818e+03,1.637500000000000067e-02
3.205699999999999818e+03,1.637500000000000067e-02
3.207599999999999909e+03,1.712500000000000133e-02
3.209500000000000000e+03,1.715000000000000205e-02
3.211500000000000000e+03,1.790000000000000271e-02
3.213400000000000091e+03,1.867500000000000063e-02
3.215300000000000182e+03,1.870000000000000134e-02
3.217199999999999818e+03,1.947500000000000273e-02
3.219199999999999818e+03,2.025000000000000064e-02
3.221099999999999909e+03,2.102500000000000202e-02
3.223000000000000000e+03,2.179999999999999993e-02
3.225000000000000000e+03,2.257500000000000132e-02
3.226900000000000091e+03,2.412500000000000061e-02
3.228800000000000182e+03,2.490000000000000199e-02
3.230800000000000182e+03,2.647500000000000200e-02
3.232699999999999818e+03,2.802499999999999783e-02
3.234599999999999909e+03,2.959999999999999784e-02
3.236500000000000000e+03,3.114999999999999714e-02
3.238500000000000000e+03,3.347499999999999781e-02
3.240400000000000091e+03,3.502500000000000058e-02
3.242300000000000182e+03,3.737500000000000544e-02
3.244300000000000182e+03,3.969999999999999918e-02
3.246199999999999818e+03,4.202499999999999986e-02
3.248099999999999909e+03,4.437500000000000472e-02
3.250000000000000000e+03,4.747499999999999637e-02
3.252000000000000000e+03,4.982500000000000123e-02
3.253900000000000091e+03,5.295000000000000401e-02
3.255800000000000182e+03,5.607499999999999291e-02
3.257800000000000182e+03,5.919999999999999568e-02
3.259699999999999818e+03,6.232499999999999846e-02
3.261599999999999909e+03,6.619999999999999496e-02
3.263500000000000000e+03,6.925000000000000600e-02
3.265500000000000000e+03,7.250000000000000888e-02
3.267400000000000091e+03,7.650000000000001243e-02
3.269300000000000182e+03,7.800000000000001377e-02
3.271300000000000182e+03,8.575000000000000677e-02
3.273199999999999818e+03,8.600000000000000699e-02
3.275099999999999909e+03,8.600000000000000699e-02
3.277000000000000000e+03,9.375000000000000000e-02
3.279000000000000000e+03,9.400000000000000022e-02
3.280900000000000091e+03,1.017500000000000071e-01
3.282800000000000182e+03,1.017500000000000071e-01
3.284800000000000182e+03,1.095000000000000140e-01
3.286699999999999818e+03,1.097500000000000142e-01
3.288599999999999909e+03,1.097500000000000142e-01
3.290500000000000000e+03,1.174999999999999933e-01
3.292500000000000000e+03,1.174999999999999933e-01
3.294400000000000091e+03,1.174999999999999933e-01
3.296300000000000182e+03,1.247499999999999998e-01
3.298300000000000182e+03,1.247499999999999998e-01
3.300199999999999818e+03,1.169999999999999929e-01
3.302099999999999909e+03,1.167499999999999927e-01
3.304000000000000000e+03,1.164999999999999925e-01
3.306000000000000000e+03,1.085000000000000131e-01
3.307900000000000091e+03,1.007500000000000062e-01
3.309800000000000182e+03,1.005000000000000060e-01
3.311800000000000182e+03,9.274999999999999911e-02
3.313699999999999818e+03,8.490000000000000324e-02
3.315599999999999909e+03,7.715000000000001024e-02
3.317500000000000000e+03,7.317500000000000393e-02
3.319500000000000000e+03,6.772500000000000742e-02
3.321400000000000091e+03,6.230000000000000121e-02
3.323300000000000182e+03,5.764999999999999292e-02
3.325300000000000182e+03,5.300000000000000544e-02
3.327199999999999818e+03,4.837500000000000133e-02
3.329099999999999909e+03,4.452500000000000208e-02
3.331000000000000000e+03,4.067500000000000282e-02
3.333000000000000000e+03,3.757500000000000423e-02
3.334900000000000091e+03,3.450000000000000289e-02
3.336800000000000182e+03,3.142500000000000154e-02
3.338800000000000182e+03,2.837499999999999745e-02
3.340699999999999818e+03,2.607500000000000095e-02
3.342599999999999909e+03,2.375000000000000028e-02
3.344599999999999909e+03,2.145000000000000032e-02
3.346500000000000000e+03,1.990000000000000102e-02
3.348400000000000091e+03,1.762500000000000178e-02
3.350300000000000182e+03,1.607499999999999901e-02
3.352300000000000182e+03,1.454999999999999870e-02
3.354199999999999818e+03,1.377499999999999732e-02
3.356099999999999909e+03,1.224249999999999991e-02
3.358099999999999909e+03,1.072250000000000113e-02
3.360000000000000000e+03,9.952499999999999541e-03
3.361900000000000091e+03,9.185000000000000456e-03
3.363800000000000182e+03,7.674999999999999531e-03
3.365800000000000182e+03,7.062500000000000201e-03
3.367699999999999818e+03,6.282500000000000757e-03
3.369599999999999909e+03,5.650000000000000508e-03
3.371599999999999909e+03,5.027499999999999851e-03
3.373500000000000000e+03,4.490000000000000067e-03
3.375400000000000091e+03,3.959999999999999978e-03
3.377300000000000182e+03,3.429999999999999456e-03
3.379300000000000182e+03,2.972499999999999448e-03
3.381199999999999818e+03,2.512499999999999976e-03
3.383099999999999909e+03,2.204999999999999929e-03
3.385099999999999909e+03,1.899999999999999996e-03
3.387000000000000000e+03,1.600000000000000077e-03
3.388900000000000091e+03,1.371250000000000073e-03
3.390800000000000182e+03,1.139250000000000072e-03
3.392800000000000182e+03,9.094999999999999352e-04
3.394699999999999818e+03,6.504999999999999281e-04
3.396599999999999909e+03,4.425000000000000222e-04
3.398599999999999909e+03,2.962500000000000181e-04
3.400500000000000000e+03,1.992499999999999914e-04
3.402400000000000091e+03,1.240000000000000054e-04
3.404300000000000182e+03,7.049999999999999247e-05
3.406300000000000182e+03,1.675000000000000057e-05
3.408199999999999818e+03,-5.675000000000000384e-05
3.410099999999999909e+03,-1.122499999999999908e-04
3.412099999999999909e+03,-1.370000000000000232e-04
3.414000000000000000e+03,-1.645000000000000140e-04
3.415900000000000091e+03,-2.084999999999999994e-04
3.417800000000000182e+03,-2.269999999999999882e-04
3.419800000000000182e+03,-2.194999999999999686e-04
3.421699999999999818e+03,-2.342499999999999747e-04
3.423599999999999909e+03,-2.565000000000000006e-04
3.425599999999999909e+03,-2.667500000000000058e-04
3.427500000000000000e+03,-2.275000000000000004e-04
3.429400000000000091e+03,-1.737250000000000079e-04
3.431300000000000182e+03,-1.552750000000000202e-04
3.433300000000000182e+03,-1.732000000000000087e-04
3.435199999999999818e+03,-1.845000000000000123e-04
3.437099999999999909e+03,-1.087499999999999871e-04
3.439099999999999909e+03,6.749999999999999747e-06
3.441000000000000000e+03,3.917499999999999677e-05
3.442900000000000091e+03,4.100000000000000047e-05
3.444800000000000182e+03,4.199999999999999768e-05
3.446800000000000182e+03,5.259999999999999783e-05
3.448699999999999818e+03,7.557500000000000741e-05
3.450599999999999909e+03,1.004999999999999898e-04
3.452599999999999909e+03,1.267499999999999909e-04
3.454500000000000000e+03,1.630000000000000047e-04
3.456400000000000091e+03,2.162499999999999980e-04
3.458400000000000091e+03,2.362499999999999962e-04
3.460300000000000182e+03,2.187500000000000317e-04
3.462199999999999818e+03,1.975000000000000301e-04
3.464099999999999909e+03,1.999999999999999825e-04
3.466099999999999909e+03,2.000000000000000096e-04
3.468000000000000000e+03,2.299999999999999799e-04
3.469900000000000091e+03,2.724999999999999558e-04
3.471900000000000091e+03,3.249999999999999851e-04
3.473800000000000182e+03,3.924999999999999995e-04
3.475699999999999818e+03,4.674999999999999794e-04
3.477599999999999909e+03,5.255000000000000339e-04
3.479599999999999909e+03,5.749999999999999903e-04
3.481500000000000000e+03,6.384999999999999617e-04
3.483400000000000091e+03,6.970000000000000284e-04
3.485400000000000091e+03,7.540000000000000044e-04
3.487300000000000182e+03,7.665000000000000372e-04
3.489199999999999818e+03,8.457500000000000391e-04
3.491099999999999909e+03,8.392500000000000437e-04
3.493099999999999909e+03,9.032499999999999730e-04
3.495000000000000000e+03,9.749999999999999552e-04
3.496900000000000091e+03,9.768999999999999472e-04
3.498900000000000091e+03,9.774999999999998534e-04
3.500800000000000182e+03,9.744499999999999690e-04
3.502699999999999818e+03,8.955000000000000286e-04
3.504599999999999909e+03,8.937500000000000132e-04
3.506599999999999909e+03,9.004500000000000134e-04
3.508500000000000000e+03,8.394999999999999685e-04
3.510400000000000091e+03,8.494999999999999947e-04
3.512400000000000091e+03,7.732500000000000658e-04
3.514300000000000182e+03,7.402500000000000226e-04
3.516199999999999818e+03,6.610500000000000490e-04
3.518099999999999909e+03,6.129249999999999499e-04
3.520099999999999909e+03,5.766499999999999491e-04
3.522000000000000000e+03,5.258999999999999352e-04
3.523900000000000091e+03,4.567499999999999620e-04
3.525900000000000091e+03,3.997499999999999318e-04
3.527800000000000182e+03,3.497500000000000175e-04
3.529699999999999818e+03,3.070749999999999695e-04
3.531599999999999909e+03,2.824999999999999820e-04
3.533599999999999909e+03,2.492500000000000141e-04
3.535500000000000000e+03,2.007499999999999736e-04
3.537400000000000091e+03,1.544999999999999878e-04
3.539400000000000091e+03,1.005000000000000034e-04
3.541300000000000182e+03,4.425000000000000493e-05
3.543199999999999818e+03,5.175000000000000428e-06
3.545099999999999909e+03,-1.900000000000000105e-05
3.547099999999999909e+03,-3.567500000000000656e-05
3.549000000000000000e+03,-2.524999999999999711e-05
3.550900000000000091e+03,4.756225000000000359e-06
3.552900000000000091e+03,-2.249999999999999803e-05
3.554800000000000182e+03,-7.749999999999999999e-05
3.556699999999999818e+03,-1.784500000000000008e-04
3.558599999999999909e+03,-2.677499999999999759e-04
3.560599999999999909e+03,-3.277500000000000248e-04
3.562500000000000000e+03,-3.424999999999999768e-04
3.564400000000000091e+03,-3.452499999999999623e-04
3.566400000000000091e+03,-3.950000000000000061e-04
3.568300000000000182e+03,-4.587500000000000106e-04
3.570199999999999818e+03,-4.749999999999999990e-04
3.572199999999999818e+03,-4.449999999999999746e-04
3.574099999999999909e+03,-4.449999999999999746e-04
3.576000000000000000e+03,-4.742500000000000079e-04
3.577900000000000091e+03,-4.924999999999999907e-04
3.579900000000000091e+03,-4.824999999999999645e-04
3.581800000000000182e+03,-4.874999999999999776e-04
3.583699999999999818e+03,-4.924999999999999907e-04
3.585699999999999818e+03,-5.075000000000000301e-04
3.587599999999999909e+03,-4.874999999999999776e-04
3.589500000000000000e+03,-4.224999999999999156e-04
3.591400000000000091e+03,-3.400000000000000244e-04
3.593400000000000091e+03,-3.004999999999999859e-04
3.595300000000000182e+03,-2.692500000000000123e-04
3.597199999999999818e+03,-2.192499999999999896e-04
3.599199999999999818e+03,-1.444999999999999887e-04
3.601099999999999909e+03,-5.924999999999999684e-05
3.603000000000000000e+03,5.074999999999999691e-06
3.604900000000000091e+03,5.022500000000000109e-05
3.606900000000000091e+03,7.200000000000000182e-05
3.608800000000000182e+03,-9.124999999999999878e-06
3.610699999999999818e+03,-5.449999999999999658e-05
3.612699999999999818e+03,-8.899999999999999491e-05
3.614599999999999909e+03,-1.232500000000000143e-04
3.616500000000000000e+03,-1.852500000000000034e-04
3.618400000000000091e+03,-2.662499999999999936e-04
3.620400000000000091e+03,-2.829999999999999942e-04
3.622300000000000182e+03,-2.345000000000000079e-04
3.624199999999999818e+03,-1.965000000000000058e-04
3.626199999999999818e+03,-2.642499999999999992e-04
3.628099999999999909e+03,-4.075000000000000388e-04
3.630000000000000000e+03,-4.924999999999999907e-04
3.631900000000000091e+03,-4.424999999999999680e-04
3.633900000000000091e+03,-3.615000000000000591e-04
3.635800000000000182e+03,-3.190000000000000019e-04
3.637699999999999818e+03,-2.727499999999999890e-04
3.639699999999999818e+03,-2.349999999999999930e-04
3.641599999999999909e+03,-2.124999999999999882e-04
3.643500000000000000e+03,-2.225000000000000415e-04
3.645400000000000091e+03,-3.024999999999999803e-04
3.647400000000000091e+03,-4.099999999999999912e-04
3.649300000000000182e+03,-4.649999999999999728e-04
3.651199999999999818e+03,-4.029999999999999837e-04
3.653199999999999818e+03,-2.824999999999999820e-04
3.655099999999999909e+03,-2.214999999999999901e-04
3.657000000000000000e+03,-2.082499999999999662e-04
3.658900000000000091e+03,-1.402500000000000209e-04
3.660900000000000091e+03,-5.475000000000000266e-05
3.662800000000000182e+03,3.374999999999999980e-07
3.664699999999999818e+03,-3.049999999999999936e-05
3.666699999999999818e+03,-8.725000000000000659e-05
3.668599999999999909e+03,-2.059999999999999657e-04
3.670500000000000000e+03,-2.812499999999999787e-04
3.672400000000000091e+03,-2.754999999999999745e-04
3.674400000000000091e+03,-2.854999999999999465e-04
3.676300000000000182e+03,-3.374999999999999637e-04
3.678199999999999818e+03,-3.170000000000000075e-04
3.680199999999999818e+03,-2.575000000000000249e-04
3.682099999999999909e+03,-2.302499999999999859e-04
3.684000000000000000e+03,-2.357500000000000112e-04
3.685900000000000091e+03,-3.122500000000000275e-04
3.687900000000000091e+03,-4.714999999999999682e-04
3.689800000000000182e+03,-5.917499999999999366e-04
3.691699999999999818e+03,-5.652499999999999972e-04
3.693699999999999818e+03,-4.634999999999999906e-04
3.695599999999999909e+03,-4.124999999999999435e-04
3.697500000000000000e+03,-4.017500000000000346e-04
3.699500000000000000e+03,-4.052500000000000113e-04
3.701400000000000091e+03,-3.759999999999999779e-04
3.703300000000000182e+03,-3.127499999999999855e-04
3.705199999999999818e+03,-2.470000000000000407e-04
3.707199999999999818e+03,-2.304999999999999920e-04
3.709099999999999909e+03,-2.804999999999999876e-04
3.711000000000000000e+03,-3.265000000000000215e-04
3.713000000000000000e+03,-2.752499999999999955e-04
3.714900000000000091e+03,-1.499600000000000076e-04
3.716800000000000182e+03,-4.525000000000000213e-05
3.718699999999999818e+03,-9.749999999999999823e-07
3.720699999999999818e+03,-4.975000000000000310e-05
3.722599999999999909e+03,-1.057499999999999955e-04
3.724500000000000000e+03,-1.524999999999999934e-04
3.726500000000000000e+03,-1.532500000000000116e-04
3.728400000000000091e+03,-1.550000000000000000e-04
3.730300000000000182e+03,-1.955000000000000086e-04
3.732199999999999818e+03,-2.717499999999999647e-04
3.734199999999999818e+03,-3.342500000000000202e-04
3.736099999999999909e+03,-3.609999999999999928e-04
3.738000000000000000e+03,-3.417500000000000399e-04
3.740000000000000000e+03,-3.082749999999999987e-04
3.741900000000000091e+03,-3.492500000000000595e-04
3.743800000000000182e+03,-4.515750000000000124e-04
3.745699999999999818e+03,-4.832499999999999556e-04
3.747699999999999818e+03,-4.764999999999999813e-04
3.749599999999999909e+03,-5.287500000000000316e-04
3.751500000000000000e+03,-5.284999999999999984e-04
3.753500000000000000e+03,-4.020000000000000136e-04
3.755400000000000091e+03,-2.681250000000000256e-04
3.757300000000000182e+03,-2.030999999999999765e-04
3.759199999999999818e+03,-1.797500000000000053e-04
3.761199999999999818e+03,-1.373000000000000034e-04
3.763099999999999909e+03,-8.199999999999998740e-05
3.765000000000000000e+03,-7.624999999999999671e-05
3.767000000000000000e+03,-9.474999999999998560e-05
3.768900000000000091e+03,-1.247499999999999965e-04
3.770800000000000182e+03,-1.447500000000000219e-04
3.772699999999999818e+03,-9.180000000000000876e-05
3.774699999999999818e+03,5.849999999999999894e-06
3.776599999999999909e+03,2.549999999999999980e-05
3.778500000000000000e+03,-2.400000000000000061e-05
3.780500000000000000e+03,-7.202500000000000243e-05
3.782400000000000091e+03,-8.650000000000000191e-05
3.784300000000000182e+03,-1.085000000000000081e-04
3.786199999999999818e+03,-1.400000000000000148e-04
3.788199999999999818e+03,-1.459999999999999981e-04
3.790099999999999909e+03,-1.477500000000000135e-04
3.792000000000000000e+03,-1.495000000000000018e-04
3.794000000000000000e+03,-1.400000000000000148e-04
3.795900000000000091e+03,-1.389999999999999905e-04
3.797800000000000182e+03,-1.537500000000000238e-04
3.799699999999999818e+03,-2.147499999999999886e-04
3.801699999999999818e+03,-2.730000000000000222e-04
3.803599999999999909e+03,-2.417500000000000215e-04
3.805500000000000000e+03,-1.973499999999999723e-04
3.807500000000000000e+03,-1.907500000000000016e-04
3.809400000000000091e+03,-1.499999999999999869e-04
3.811300000000000182e+03,-1.172499999999999904e-04
3.813300000000000182e+03,-1.440000000000000036e-04
3.815199999999999818e+03,-2.083999999999999698e-04
3.817099999999999909e+03,-1.849999999999999702e-04
3.819000000000000000e+03,-1.182500000000000147e-04
3.821000000000000000e+03,-1.260500000000000010e-04
3.822900000000000091e+03,-1.424999999999999943e-04
3.824800000000000182e+03,-9.349999999999999587e-05
3.826800000000000182e+03,-5.549999999999999378e-05
3.828699999999999818e+03,-2.750000000000000437e-05
3.830599999999999909e+03,-4.950000000000000252e-07
3.832500000000000000e+03,-2.700000000000000238e-05
3.834500000000000000e+03,-7.449999999999999483e-05
3.836400000000000091e+03,-1.547499999999999939e-04
3.838300000000000182e+03,-2.240000000000000237e-04
3.840300000000000182e+03,-2.029999999999999741e-04
3.842199999999999818e+03,-1.292499999999999975e-04
3.844099999999999909e+03,-7.022499999999999934e-05
3.846000000000000000e+03,-3.674999999999999881e-05
3.848000000000000000e+03,-3.599999999999999414e-05
3.849900000000000091e+03,-1.124999999999999834e-04
3.851800000000000182e+03,-2.832500000000000274e-04
3.853800000000000182e+03,-3.827500000000000064e-04
3.855699999999999818e+03,-2.820000000000000241e-04
3.857599999999999909e+03,-1.202499999999999820e-04
3.859500000000000000e+03,-5.875000000000000502e-05
3.861500000000000000e+03,-8.050000000000000515e-05
3.863400000000000091e+03,-1.410000000000000120e-04
3.865300000000000182e+03,-1.789999999999999870e-04
3.867300000000000182e+03,-1.650000000000000262e-04
3.869199999999999818e+03,-1.527499999999999995e-04
3.871099999999999909e+03,-1.404999999999999999e-04
3.873000000000000000e+03,-1.132499999999999880e-04
3.875000000000000000e+03,-9.650000000000000103e-05
3.876900000000000091e+03,-7.124999999999999715e-05
3.878800000000000182e+03,-4.575000000000000074e-05
3.880800000000000182e+03,-3.874999999999999999e-05
3.882699999999999818e+03,-2.400000000000000061e-05
3.884599999999999909e+03,-1.250000000000000229e-05
3.886500000000000000e+03,-4.574999999999999608e-07
3.888500000000000000e+03,-1.917499999999999852e-05
3.890400000000000091e+03,-5.750000000000000852e-05
3.892300000000000182e+03,-9.300000000000001083e-05
3.894300000000000182e+03,-7.750000000000001354e-05
3.896199999999999818e+03,-6.145000000000000288e-05
3.898099999999999909e+03,-6.475000000000000178e-05
3.900000000000000000e+03,-9.299999999999998372e-05
3.902000000000000000e+03,-1.711750000000000272e-04
3.903900000000000091e+03,-2.271499999999999919e-04
3.905800000000000182e+03,-1.979999999999999610e-04
3.907800000000000182e+03,-1.300000000000000157e-04
3.909699999999999818e+03,-7.825000000000000466e-05
3.911599999999999909e+03,-6.750000000000000086e-05
3.913500000000000000e+03,-7.899999999999999579e-05
3.915500000000000000e+03,-1.197499999999999970e-04
3.917400000000000091e+03,-1.720000000000000066e-04
3.919300000000000182e+03,-1.867500000000000128e-04
3.921300000000000182e+03,-1.720000000000000066e-04
3.923199999999999818e+03,-1.745000000000000132e-04
3.925099999999999909e+03,-1.910000000000000077e-04
3.927099999999999909e+03,-1.775000000000000319e-04
3.929000000000000000e+03,-1.457500000000000191e-04
3.930900000000000091e+03,-9.249999999999998512e-05
3.932800000000000182e+03,-2.530000000000000171e-05
3.934800000000000182e+03,8.999999999999998534e-06
3.936699999999999818e+03,1.350000000000000119e-05
3.938599999999999909e+03,3.025000000000000345e-05
3.940599999999999909e+03,3.975000000000000397e-05
3.942500000000000000e+03,1.739999999999999942e-05
3.944400000000000091e+03,-2.250000000000000481e-06
3.946300000000000182e+03,1.349999999999999949e-05
3.948300000000000182e+03,6.129999999999999924e-05
3.950199999999999818e+03,1.134999999999999941e-04
3.952099999999999909e+03,1.630000000000000047e-04
3.954099999999999909e+03,2.192499999999999896e-04
3.956000000000000000e+03,2.527499999999999907e-04
3.957900000000000091e+03,2.527499999999999907e-04
3.959800000000000182e+03,2.490000000000000351e-04
3.961800000000000182e+03,2.660000000000000146e-04
3.963699999999999818e+03,2.825000000000000362e-04
3.965599999999999909e+03,3.022499999999999471e-04
3.967599999999999909e+03,3.282499999999999828e-04
3.969500000000000000e+03,3.589999999999999984e-04
3.971400000000000091e+03,4.075000000000000388e-04
3.973300000000000182e+03,4.599999999999999597e-04
3.975300000000000182e+03,5.250000000000000760e-04
3.977199999999999818e+03,5.800000000000000034e-04
3.979099999999999909e+03,5.850000000000000165e-04
3.981099999999999909e+03,6.024999999999999540e-04
3.983000000000000000e+03,6.750000000000000357e-04
3.984900000000000091e+03,7.650000000000000550e-04
3.986800000000000182e+03,8.149999999999999693e-04
3.988800000000000182e+03,8.999999999999999754e-04
3.990699999999999818e+03,9.049999999999999885e-04
3.992599999999999909e+03,9.824999999999998665e-04
